timestamp,ch0,ch1,ch2,ch3,ch4,ch5,ch8,ch9,cha,chb,chc,chd
49393.0,,,,,,,,,,,,
49394.0,,,,,,,,,,,,
49395.0,0.00018537046734934656,-0.941640250878364,-2.626766875596866,-2.5111243142037765,-2.6264986546634024,-2.627134040252452,-2.627095893275248,-2.6272031816486336,-2.6271107944382184,-2.62726993885874,-2.6266881974563834,-2.626810983039258
49396.0,0.00019192697905623664,-0.9412772585484097,-2.6267680676899037,-2.5116190328143873,-2.626505807221628,-2.6271376165315647,-2.627102449786955,-2.6272103342068593,-2.6271167549034065,-2.6272711309517778,-2.62668998559594,-2.626810983039258
49397.0,0.0001943111651314694,-0.9409220148232,-2.6267710479224977,-2.511840166072865,-2.6265069993146657,-2.627140596764159,-2.627103045833474,-2.6272091421138217,-2.6271191390894817,-2.6272747072308906,-2.6266905816424586,-2.6268127711788143
49398.0,0.00019013883949981208,-0.9405488897024261,-2.6267710479224977,-2.511856259328873,-2.6265040190820717,-2.6271388086246024,-2.627098873507842,-2.62720496978819,-2.6271137746708124,-2.6272747072308906,-2.626689389549421,-2.626813963271852
49399.0,0.00019013883949981208,-0.9401745724886146,-2.6267656835038284,-2.511890233980445,-2.626502826989034,-2.6271358283920083,-2.627097085368286,-2.6272031816486336,-2.6271131786242936,-2.627274111184372,-2.6266876014098646,-2.626810386992739
49400.0,0.00019729139772551031,-0.9397877382979081,-2.6267627032712344,-2.5118753328174748,-2.6265016348959964,-2.627134040252452,-2.62710006560088,-2.6272067579277465,-2.6271143707173312,-2.6272747072308906,-2.6266905816424586,-2.6268091948997014
49401.0,0.00020146372335716765,-0.9394050764328332,-2.6267561467595275,-2.5118359937472334,-2.6264891179191014,-2.627124503508151,-2.6270857604844284,-2.6271912607182575,-2.627102449786955,-2.6272621902539957,-2.626673296293413,-2.626800850248438
49402.0,0.00019907953728193488,-0.9389628099158775,-2.6267621072247156,-2.5117710246766833,-2.626493886291252,-2.6271328481594143,-2.6270923169961353,-2.627199009323002,-2.6271048339730303,-2.6272651704865897,-2.6266780646655636,-2.626804426527551
49403.0,0.0001937151186126612,-0.9385127947941774,-2.626754358619971,-2.511691750489682,-2.6264897139656203,-2.627124503508151,-2.627086952577466,-2.6271948369973703,-2.62710006560088,-2.6272604021144392,-2.6266756804794884,-2.6267990621088817
49404.0,0.0002050400024700168,-0.9380919859518988,-2.6267567428060463,-2.511781157467503,-2.6264915021051767,-2.6271250995546698,-2.62708993281006,-2.627196029090408,-2.627105430019549,-2.6272627863005145,-2.626677468619045,-2.6268026383879945
49405.0,0.00018954279298100387,-0.9377373382732079,-2.6267585309456027,-2.511847318631091,-2.626493886291252,-2.6271250995546698,-2.6270917209496165,-2.627195433043889,-2.6271006616473986,-2.6272604021144392,-2.626673892339932,-2.6268032344345134
49406.0,0.00019669535120670213,-0.937348715942945,-2.6267555507130087,-2.5117889060722476,-2.6264920981516955,-2.6271292718803014,-2.6270851644379096,-2.6271948369973703,-2.6271072181591055,-2.627258017928364,-2.626676872572526,-2.626798466062363
49407.0,0.00018954279298100387,-0.9369761868686899,-2.62675495466649,-2.5117453946763746,-2.6264855416399886,-2.6271262916477074,-2.6270821842053156,-2.627192452811295,-2.62710006560088,-2.627254441649251,-2.626673892339932,-2.6267960818762877
49408.0,0.00019133093253742843,-0.9366286917482247,-2.626763895364272,-2.511824668863376,-2.626490906058658,-2.6271286758337826,-2.6270917209496165,-2.627198413276483,-2.6271036418799927,-2.6272633823470333,-2.626676276526007,-2.626808002806664
49409.0,0.00019252302557504482,-0.9362758322090903,-2.626760319085159,-2.5118413581659027,-2.626496866523846,-2.6271286758337826,-2.6270917209496165,-2.6271978172299644,-2.627105430019549,-2.627264574440071,-2.626676872572526,-2.6268056186205886
49410.0,0.00018656256038696294,-0.9358860177857897,-2.626763299317753,-2.5117859258396535,-2.6264986546634024,-2.627128079787264,-2.6270911249030977,-2.6272031816486336,-2.627109006298662,-2.6272663625796273,-2.6266810448981577,-2.626806810713626
49411.0,0.000193119072093853,-0.9355724973168966,-2.6267597230386404,-2.5115677728137697,-2.626493290244733,-2.627123907461632,-2.6270893367635413,-2.627201393509077,-2.6271018537404363,-2.6272633823470333,-2.6266810448981577,-2.6268026383879945
49412.0,0.00019252302557504482,-0.9352071208008672,-2.626760915131678,-2.5113919390907213,-2.6264944823377707,-2.627128079787264,-2.6270887407170225,-2.627193048857814,-2.627106026066068,-2.6272621902539957,-2.626676872572526,-2.62680502257407
49413.0,0.00019609930468789395,-0.9348196905636419,-2.626757934899084,-2.511157096762311,-2.626493886291252,-2.6271286758337826,-2.6270893367635413,-2.6271966251369268,-2.6271018537404363,-2.6272592100214016,-2.6266756804794884,-2.626800850248438
49414.0,0.00020086767683835945,-0.934446565442868,-2.6267597230386404,-2.5110927237382796,-2.6264956744308083,-2.627130463973339,-2.6270917209496165,-2.6271966251369268,-2.627102449786955,-2.6272627863005145,-2.62667985280512,-2.626801446294957
49415.0,0.0001883506999433875,-0.9340883414850643,-2.626760319085159,-2.5110426558306997,-2.6264956744308083,-2.627130463973339,-2.627086952577466,-2.627198413276483,-2.6271066221125867,-2.6272657665331085,-2.62667985280512,-2.6268026383879945
49416.0,0.0001841783743117302,-0.9337253491551101,-2.6267537625734523,-2.5110939158313172,-2.626490906058658,-2.627124503508151,-2.627087548623985,-2.6271912607182575,-2.627098873507842,-2.627258017928364,-2.626670912107338,-2.62679488978325
49417.0,0.00018477442083053838,-0.9333486477552232,-2.6267561467595275,-2.511154116529717,-2.6264944823377707,-2.627131060019858,-2.627090528856579,-2.6271972211834456,-2.627105430019549,-2.6272657665331085,-2.6266786607120824,-2.626800850248438
49418.0,0.00018596651386815476,-0.9329755226344493,-2.626763299317753,-2.5110736502496778,-2.626500442802959,-2.627136424438527,-2.627095893275248,-2.6272037776951525,-2.627111986531256,-2.627267554672665,-2.626683429084233,-2.626806810713626
49419.0,0.00019729139772551031,-0.9325839200715923,-2.6267621072247156,-2.5111737860648375,-2.626496270477327,-2.6271346362989707,-2.6270947011822106,-2.6272037776951525,-2.6271072181591055,-2.6272681507191837,-2.626680448851639,-2.6268026383879945
49420.0,0.0001877546534245793,-0.9322107949508184,-2.6267495902478206,-2.5112333907167184,-2.6264885218725826,-2.627121523275557,-2.627083972344872,-2.62719006862522,-2.627098873507842,-2.627258613974883,-2.626673892339932,-2.6267936976902124
49421.0,0.0001883506999433875,-0.931863895876872,-2.6267597230386404,-2.5112137211815977,-2.626490310012139,-2.6271292718803014,-2.62708993281006,-2.627196029090408,-2.627105430019549,-2.627261594207477,-2.626676872572526,-2.626804426527551
49422.0,0.0001877546534245793,-0.9315307058728582,-2.626760915131678,-2.511253656298358,-2.6264944823377707,-2.627130463973339,-2.6270881446705037,-2.627195433043889,-2.6271048339730303,-2.627263978393552,-2.6266780646655636,-2.626804426527551
49423.0,0.00018715860690577112,-0.9312064565666266,-2.6267585309456027,-2.5113448514157355,-2.6264950783842895,-2.627126887694226,-2.6270887407170225,-2.627195433043889,-2.6271036418799927,-2.6272633823470333,-2.6266780646655636,-2.626800850248438
49424.0,0.00019133093253742843,-0.9308500207483793,-2.6267662795503472,-2.5112548483913955,-2.6265010388494776,-2.6271376165315647,-2.627098873507842,-2.6272061618812277,-2.6271137746708124,-2.6272723230448154,-2.6266846211772705,-2.626810983039258
49425.0,0.00019133093253742843,-0.9304959691162072,-2.6267597230386404,-2.5111177576920696,-2.6264956744308083,-2.627128079787264,-2.627087548623985,-2.6271978172299644,-2.627105430019549,-2.6272633823470333,-2.62667985280512,-2.626803830481032
49426.0,0.00019133093253742843,-0.9300936377160117,-2.626757934899084,-2.5112012042047027,-2.6264885218725826,-2.627126887694226,-2.627084568391391,-2.627192452811295,-2.6271012576939174,-2.627257421881845,-2.626674488386451,-2.6268020423414757
49427.0,0.00019669535120670213,-0.9297431623629525,-2.6267531665269335,-2.5111827267626197,-2.626487925826064,-2.6271203311825193,-2.627084568391391,-2.62719006862522,-2.62710006560088,-2.627258017928364,-2.6266721042003756,-2.626798466062363
49428.0,0.00018596651386815476,-0.9294284498010218,-2.626760915131678,-2.5112703456008845,-2.6264920981516955,-2.6271316560663767,-2.6270887407170225,-2.627196029090408,-2.6271066221125867,-2.6272621902539957,-2.6266792567586013,-2.6268020423414757
49429.0,0.0001883506999433875,-0.9290982400296021,-2.6267621072247156,-2.5114169730445113,-2.626493886291252,-2.627130463973339,-2.627090528856579,-2.6271978172299644,-2.627106026066068,-2.627261594207477,-2.62667985280512,-2.626808002806664
49430.0,0.00018656256038696294,-0.9287340556066103,-2.6267537625734523,-2.5114694251381664,-2.626487925826064,-2.627123907461632,-2.627083376298353,-2.627193048857814,-2.627102449786955,-2.627261594207477,-2.6266727002468944,-2.6268002542019193
49431.0,0.0001943111651314694,-0.9283984814165213,-2.6267531665269335,-2.5115093602549265,-2.626484349546951,-2.6271197351360005,-2.627086952577466,-2.62719006862522,-2.6270976814148046,-2.6272592100214016,-2.6266727002468944,-2.6267996581554005
49432.0,0.00020682814202644133,-0.9280903253662974,-2.6267597230386404,-2.511545719092574,-2.626496270477327,-2.627131060019858,-2.62708993281006,-2.6271966251369268,-2.627105430019549,-2.627263978393552,-2.6266786607120824,-2.6268032344345134
49433.0,0.00019609930468789395,-0.9278054151303071,-2.6267567428060463,-2.5115475072321303,-2.6264885218725826,-2.6271256956011886,-2.627083972344872,-2.627192452811295,-2.6271012576939174,-2.627258613974883,-2.6266721042003756,-2.626797870015844
49434.0,0.00019252302557504482,-0.92748891442882,-2.626757934899084,-2.5116059197909735,-2.626487329779545,-2.6271250995546698,-2.6270863565309472,-2.627192452811295,-2.627098873507842,-2.6272556337422888,-2.626674488386451,-2.6267990621088817
49435.0,0.00019192697905623664,-0.9271587046574002,-2.6267621072247156,-2.5115880383954092,-2.6264956744308083,-2.6271352323454895,-2.6270952972287294,-2.62720496978819,-2.6271107944382184,-2.6272681507191837,-2.6266840251307517,-2.626806810713626
49436.0,0.00019609930468789395,-0.9268213423277548,-2.6267627032712344,-2.511629165605207,-2.6264956744308083,-2.6271256956011886,-2.62708993281006,-2.627198413276483,-2.6271012576939174,-2.6272627863005145,-2.6266786607120824,-2.62680502257407
49437.0,0.00019073488601862025,-0.9264118583693336,-2.6267561467595275,-2.5116625442102603,-2.626490906058658,-2.6271262916477074,-2.627087548623985,-2.6271948369973703,-2.6271018537404363,-2.6272598060679204,-2.6266786607120824,-2.6267990621088817
49438.0,0.00019490721165027757,-0.9260613830162744,-2.6267531665269335,-2.511682213745381,-2.6264920981516955,-2.6271221193220757,-2.6270851644379096,-2.6271912607182575,-2.6270982774613234,-2.627258017928364,-2.626674488386451,-2.626797870015844
49439.0,0.000193119072093853,-0.9257120997562527,-2.6267561467595275,-2.5114622725799407,-2.6264926941982143,-2.627128079787264,-2.6270887407170225,-2.6271942409508515,-2.6271072181591055,-2.6272621902539957,-2.6266750844329696,-2.6267996581554005
49440.0,0.0001877546534245793,-0.9253705651009756,-2.626754358619971,-2.5112333907167184,-2.6264956744308083,-2.6271250995546698,-2.627084568391391,-2.6271942409508515,-2.6271036418799927,-2.6272621902539957,-2.626677468619045,-2.626801446294957
49441.0,0.00020205976987597583,-0.9250486999808192,-2.6267537625734523,-2.5109526528063597,-2.6264891179191014,-2.6271256956011886,-2.627087548623985,-2.6271948369973703,-2.627102449786955,-2.6272598060679204,-2.626676872572526,-2.6267966779228065
49442.0,0.00020205976987597583,-0.9247590213726784,-2.6267591269921216,-2.510690392338084,-2.6264926941982143,-2.6271292718803014,-2.6270911249030977,-2.627195433043889,-2.6271042379265115,-2.627264574440071,-2.6266756804794884,-2.6268026383879945
49443.0,0.00019073488601862025,-0.9244878202066207,-2.6267561467595275,-2.510373295590078,-2.6264944823377707,-2.6271262916477074,-2.6270851644379096,-2.6271942409508515,-2.627103045833474,-2.627261594207477,-2.6266786607120824,-2.6268002542019193
49444.0,0.000183582327792922,-0.9242017178775928,-2.626751974433896,-2.5101980579135486,-2.626487925826064,-2.6271203311825193,-2.6270851644379096,-2.627192452811295,-2.627097085368286,-2.6272568258353264,-2.6266750844329696,-2.626795485829769
49445.0,0.000193119072093853,-0.9238929657808501,-2.6267495902478206,-2.510085405121494,-2.626484349546951,-2.6271197351360005,-2.627080992112278,-2.627189472578701,-2.627095893275248,-2.6272562297888076,-2.626667335828225,-2.626791909550656
49446.0,0.00019669535120670213,-0.9235556034512047,-2.626751974433896,-2.510006726981011,-2.6264897139656203,-2.627124503508151,-2.6270827802518344,-2.6271936449043327,-2.6271012576939174,-2.6272598060679204,-2.6266727002468944,-2.6267931016436936
49447.0,0.0001937151186126612,-0.9232259897263038,-2.6267650874573096,-2.509910167444964,-2.6264944823377707,-2.6271316560663767,-2.6270941051356917,-2.6271978172299644,-2.627109006298662,-2.6272657665331085,-2.626683429084233,-2.6268097909462202
49448.0,0.00019192697905623664,-0.9229041246061473,-2.6267597230386404,-2.5098720204677605,-2.6264885218725826,-2.627124503508151,-2.6270881446705037,-2.6271942409508515,-2.627102449786955,-2.6272598060679204,-2.626673892339932,-2.626800850248438
49449.0,0.00019550325816908577,-0.9226114657654125,-2.626763299317753,-2.5098469865139705,-2.626496270477327,-2.627130463973339,-2.6270941051356917,-2.627201989555596,-2.627108410252143,-2.6272687467657025,-2.6266816409446765,-2.6268091948997014
49450.0,0.00019133093253742843,-0.9223092701803768,-2.6267585309456027,-2.509920300235784,-2.6264986546634024,-2.6271316560663767,-2.6270947011822106,-2.6272007974625584,-2.6271096023451808,-2.627266958626146,-2.62667985280512,-2.6268056186205886
49451.0,0.0001996755838007431,-0.9219736959902878,-2.6267507823408582,-2.5098195683741054,-2.6264897139656203,-2.6271233114151133,-2.627083376298353,-2.62719006862522,-2.627098873507842,-2.6272562297888076,-2.626670912107338,-2.626795485829769
49452.0,0.00019013883949981208,-0.9216464664514621,-2.6267442258291513,-2.5097563874431117,-2.626484349546951,-2.6271161588568877,-2.627074435600571,-2.627185896299588,-2.6270976814148046,-2.6272532495562135,-2.6266661437351875,-2.626788929318062
49453.0,0.0002086162815828659,-0.9213162566800424,-2.626751378387377,-2.5095859181387326,-2.6264855416399886,-2.627124503508151,-2.6270857604844284,-2.627186492346107,-2.627099469554361,-2.6272562297888076,-2.6266697200143003,-2.6267942937367312
49454.0,0.00019609930468789395,-0.9209478999314189,-2.6267567428060463,-2.509410084415684,-2.626490310012139,-2.627127483740745,-2.62708993281006,-2.6271936449043327,-2.6271042379265115,-2.6272621902539957,-2.6266750844329696,-2.626801446294957
49455.0,0.000193119072093853,-0.9206385517881575,-2.6267591269921216,-2.5092098127853646,-2.626496270477327,-2.627123907461632,-2.6270923169961353,-2.6271978172299644,-2.627102449786955,-2.6272627863005145,-2.6266786607120824,-2.6268032344345134
49456.0,0.0001996755838007431,-0.9203679466686185,-2.626763299317753,-2.509093583714197,-2.6264920981516955,-2.6271316560663767,-2.62708993281006,-2.6272002014160396,-2.6271078142056243,-2.6272621902539957,-2.6266816409446765,-2.626806810713626
49457.0,0.00018537046734934656,-0.9200591945718759,-2.6267650874573096,-2.508954108828796,-2.62649984675644,-2.6271352323454895,-2.6270952972287294,-2.6272002014160396,-2.6271131786242936,-2.627266958626146,-2.6266846211772705,-2.6268085988531826
49458.0,0.00019550325816908577,-0.9197617673589906,-2.6267650874573096,-2.5087317834772804,-2.62649984675644,-2.627131060019858,-2.627095893275248,-2.627199605369521,-2.6271107944382184,-2.6272687467657025,-2.626682833037714,-2.6268091948997014
49459.0,0.00019252302557504482,-0.9194899701464141,-2.6267662795503472,-2.5084868083580503,-2.626496270477327,-2.627131060019858,-2.627095893275248,-2.627201989555596,-2.627109006298662,-2.6272657665331085,-2.626683429084233,-2.626808002806664
49460.0,0.00020027163031955127,-0.9191955231661229,-2.6267561467595275,-2.508298457658107,-2.6264915021051767,-2.627126887694226,-2.6270893367635413,-2.627195433043889,-2.627102449786955,-2.6272633823470333,-2.626676276526007,-2.626800850248438
49461.0,0.00019669535120670213,-0.9188772343250793,-2.626757338852565,-2.5081250081211337,-2.6264926941982143,-2.6271262916477074,-2.6270881446705037,-2.627193048857814,-2.6271006616473986,-2.627263978393552,-2.626676276526007,-2.6267972739693253
49462.0,0.00019073488601862025,-0.9185154340881627,-2.626760915131678,-2.5078800330019035,-2.626496866523846,-2.6271298679268202,-2.6270911249030977,-2.627198413276483,-2.6271066221125867,-2.627263978393552,-2.6266810448981577,-2.6268062146671074
49463.0,0.00019788744424431852,-0.9181435010604264,-2.6267627032712344,-2.507602275324139,-2.6264944823377707,-2.6271328481594143,-2.6270917209496165,-2.6271978172299644,-2.627108410252143,-2.6272657665331085,-2.626685813270308,-2.6268056186205886
49464.0,0.00018596651386815476,-0.9177769324513593,-2.6267561467595275,-2.507449687415324,-2.6264920981516955,-2.6271227153685945,-2.6270887407170225,-2.6271948369973703,-2.6270976814148046,-2.6272604021144392,-2.6266786607120824,-2.626800850248438
49465.0,0.0001889467464621957,-0.9173883101210963,-2.6267567428060463,-2.5072303422964026,-2.626487925826064,-2.6271227153685945,-2.627084568391391,-2.6271906646717387,-2.627098873507842,-2.6272598060679204,-2.6266756804794884,-2.6267996581554005
49466.0,0.0001937151186126612,-0.9169931312791265,-2.6267537625734523,-2.5069758304328715,-2.6264891179191014,-2.6271227153685945,-2.627083972344872,-2.6271906646717387,-2.6270982774613234,-2.6272568258353264,-2.6266715081538567,-2.6267936976902124
49467.0,0.00018596651386815476,-0.9166128536001269,-2.6267460139687078,-2.5067731746164768,-2.626481369314357,-2.62711496676385,-2.6270762237401275,-2.627186492346107,-2.62708993281006,-2.627249077230582,-2.626664355595631,-2.6267877372250243
49468.0,0.000193119072093853,-0.9162725110378874,-2.626747802108264,-2.5065472729858485,-2.626483753500432,-2.6271191390894817,-2.6270792039727215,-2.627182916066994,-2.6270941051356917,-2.6272526535096947,-2.626667335828225,-2.626791909550656
49469.0,0.0001877546534245793,-0.9159262080104599,-2.626748398154783,-2.5063237555412954,-2.62648494559347,-2.6271191390894817,-2.627077415833165,-2.627184108160032,-2.6270947011822106,-2.6272508653701383,-2.6266691239677815,-2.626791909550656
49470.0,0.00019192697905623664,-0.9155262607963396,-2.6267525704804147,-2.5060895092594038,-2.626487329779545,-2.627121523275557,-2.6270827802518344,-2.6271906646717387,-2.6271042379265115,-2.6272562297888076,-2.6266715081538567,-2.6267972739693253
49471.0,0.000193119072093853,-0.9151137966053243,-2.626751378387377,-2.505933345071476,-2.626487925826064,-2.6271233114151133,-2.627087548623985,-2.6271918567647763,-2.6271006616473986,-2.6272562297888076,-2.626673296293413,-2.6267972739693253
49472.0,0.00018477442083053838,-0.9146768945070379,-2.6267525704804147,-2.5056436664633353,-2.6264891179191014,-2.627121523275557,-2.627083972344872,-2.6271936449043327,-2.6270982774613234,-2.6272562297888076,-2.6266756804794884,-2.6267990621088817
49473.0,0.0001889467464621957,-0.9142835038046245,-2.6267537625734523,-2.505432665995677,-2.626487925826064,-2.627120927229038,-2.6270827802518344,-2.6271876844391446,-2.627095893275248,-2.6272532495562135,-2.6266715081538567,-2.626797870015844
49474.0,0.00019133093253742843,-0.9139056103117001,-2.626754358619971,-2.5052580243656664,-2.6264861376865074,-2.6271197351360005,-2.627084568391391,-2.6271912607182575,-2.627095893275248,-2.6272592100214016,-2.626670912107338,-2.626798466062363
49475.0,0.00018715860690577112,-0.9135414258887083,-2.626748994201302,-2.5051090127359643,-2.6264795811748005,-2.6271173509499253,-2.6270756276936087,-2.627184108160032,-2.627092913042654,-2.6272526535096947,-2.626667931874744,-2.6267901214110996
49476.0,0.0001883506999433875,-0.9131408826280693,-2.62674482187567,-2.5048688059888846,-2.6264789851282817,-2.627111986531256,-2.6270738395540523,-2.6271811279274377,-2.6270887407170225,-2.6272496732771007,-2.626667335828225,-2.6267871411785055
49477.0,0.00019729139772551031,-0.9127522602978063,-2.6267472060617454,-2.5046411162187,-2.6264855416399886,-2.6271173509499253,-2.627080396065759,-2.6271847042065506,-2.627093509089173,-2.627252057463176,-2.626667335828225,-2.626791313504137
49478.0,0.00019252302557504482,-0.9123451605254603,-2.6267561467595275,-2.504485548077291,-2.6264885218725826,-2.6271233114151133,-2.627080992112278,-2.627189472578701,-2.62710006560088,-2.627257421881845,-2.626673892339932,-2.626795485829769
49479.0,0.00019013883949981208,-0.9119148149388808,-2.626754358619971,-2.5042918329586783,-2.626487329779545,-2.6271262916477074,-2.627087548623985,-2.6271918567647763,-2.627103045833474,-2.627257421881845,-2.626673296293413,-2.626797870015844
49480.0,0.00019788744424431852,-0.9115065230734972,-2.6267507823408582,-2.5040861969096895,-2.6264855416399886,-2.6271221193220757,-2.6270815881587968,-2.627189472578701,-2.62710006560088,-2.6272556337422888,-2.626670316060819,-2.6267966779228065
49481.0,0.00019788744424431852,-0.9111226691153848,-2.626751974433896,-2.5038716201629185,-2.626490310012139,-2.627128079787264,-2.6270863565309472,-2.6271918567647763,-2.627105430019549,-2.6272604021144392,-2.6266750844329696,-2.6267990621088817
49482.0,0.00020086767683835945,-0.9107650412040998,-2.626760319085159,-2.503674924811712,-2.6264915021051767,-2.627126887694226,-2.6270911249030977,-2.627196029090408,-2.6271042379265115,-2.6272604021144392,-2.626677468619045,-2.62680502257407
49483.0,0.00019609930468789395,-0.9104002607345892,-2.626751378387377,-2.5033989552735036,-2.6264915021051767,-2.627124503508151,-2.6270857604844284,-2.6271948369973703,-2.627103045833474,-2.6272621902539957,-2.626676276526007,-2.6267966779228065
49484.0,0.00018954279298100387,-0.9100187909625519,-2.6267621072247156,-2.5030604008508206,-2.626499250709921,-2.627134040252452,-2.6270893367635413,-2.627201989555596,-2.6271078142056243,-2.6272621902539957,-2.6266822369911953,-2.62680502257407
49485.0,0.00019252302557504482,-0.9096254002601385,-2.626751378387377,-2.502881586895178,-2.6264861376865074,-2.627120927229038,-2.6270827802518344,-2.6271888765321822,-2.6270947011822106,-2.627254441649251,-2.6266697200143003,-2.626795485829769
49486.0,0.00019550325816908577,-0.9092481028137329,-2.6267507823408582,-2.502857148987907,-2.626486733733026,-2.627124503508151,-2.6270792039727215,-2.6271912607182575,-2.6270982774613234,-2.627258613974883,-2.626673296293413,-2.6267942937367312
49487.0,0.00019729139772551031,-0.9088851104837787,-2.626757934899084,-2.50300079619894,-2.626493886291252,-2.6271316560663767,-2.62708993281006,-2.6271978172299644,-2.6271072181591055,-2.6272621902539957,-2.6266792567586013,-2.626801446294957
49488.0,0.0001984834907631267,-0.908526886525975,-2.626757934899084,-2.5030019882919774,-2.626490906058658,-2.627126887694226,-2.6270851644379096,-2.6271978172299644,-2.6271018537404363,-2.6272627863005145,-2.6266780646655636,-2.626804426527551
49489.0,0.00019013883949981208,-0.9081686625681713,-2.6267627032712344,-2.50286072526702,-2.6264950783842895,-2.6271346362989707,-2.6270923169961353,-2.627199009323002,-2.627109006298662,-2.627267554672665,-2.626680448851639,-2.6268062146671074
49490.0,0.0001937151186126612,-0.9078098425638488,-2.6267585309456027,-2.502599656891782,-2.6264950783842895,-2.627127483740745,-2.6270923169961353,-2.6271972211834456,-2.6271048339730303,-2.627266958626146,-2.626680448851639,-2.6268026383879945
49491.0,0.0001883506999433875,-0.9074522146525639,-2.6267460139687078,-2.5024083259592445,-2.62648494559347,-2.6271167549034065,-2.627080992112278,-2.6271888765321822,-2.627095893275248,-2.6272568258353264,-2.6266697200143003,-2.626791909550656
49492.0,0.00019013883949981208,-0.9070516713919248,-2.6267507823408582,-2.502180040142541,-2.626483753500432,-2.6271167549034065,-2.6270792039727215,-2.6271876844391446,-2.6270947011822106,-2.627252057463176,-2.6266685279212627,-2.62679488978325
49493.0,0.00018537046734934656,-0.9066839106898201,-2.6267597230386404,-2.501913011302115,-2.626493290244733,-2.6271298679268202,-2.627086952577466,-2.6271948369973703,-2.6271042379265115,-2.6272633823470333,-2.62667985280512,-2.6268032344345134
49494.0,0.0001883506999433875,-0.9063370116158738,-2.6267555507130087,-2.5019356610698296,-2.6264915021051767,-2.627124503508151,-2.6270827802518344,-2.6271948369973703,-2.62710006560088,-2.627258613974883,-2.6266786607120824,-2.626798466062363
49495.0,0.00019729139772551031,-0.9060187227748302,-2.626757934899084,-2.5018200280451808,-2.6264885218725826,-2.6271262916477074,-2.6270881446705037,-2.6271912607182575,-2.627103045833474,-2.6272592100214016,-2.626676872572526,-2.6268026383879945
49496.0,0.00019192697905623664,-0.9057725555625624,-2.6267525704804147,-2.5016149880427108,-2.626490906058658,-2.6271221193220757,-2.6270863565309472,-2.6271906646717387,-2.627099469554361,-2.6272592100214016,-2.626673296293413,-2.6267972739693253
49497.0,0.00019133093253742843,-0.9055120832338432,-2.6267472060617454,-2.5014701487386404,-2.6264891179191014,-2.6271227153685945,-2.627080396065759,-2.6271912607182575,-2.627098873507842,-2.6272562297888076,-2.6266685279212627,-2.6267942937367312
49498.0,0.00018715860690577112,-0.9052742606728388,-2.626745417922189,-2.5013080240855246,-2.626484349546951,-2.627118543042963,-2.627072051414496,-2.627187088392626,-2.62708993281006,-2.6272496732771007,-2.62666495164215,-2.6267895253645808
49499.0,0.00019192697905623664,-0.9050555116004362,-2.626747802108264,-2.5011524559441156,-2.62648494559347,-2.6271167549034065,-2.627077415833165,-2.627184108160032,-2.627092913042654,-2.6272526535096947,-2.62666495164215,-2.6267895253645808
49500.0,0.00020086767683835945,-0.9048570281096731,-2.6267400535035197,-2.5009539724533525,-2.6264771969887253,-2.6271078142056243,-2.627071455367977,-2.627177551648325,-2.6270851644379096,-2.627245500951469,-2.626658395130443,-2.6267811807133175
49501.0,0.0001943111651314694,-0.9046686774097297,-2.6267472060617454,-2.50073522338095,-2.626478389081763,-2.6271167549034065,-2.627077415833165,-2.627184108160032,-2.627092913042654,-2.6272502693236195,-2.6266667397817063,-2.6267895253645808
49502.0,0.00019192697905623664,-0.9045476799664116,-2.6267501862943394,-2.5004723668661555,-2.626483753500432,-2.6271161588568877,-2.6270786079262027,-2.6271888765321822,-2.627093509089173,-2.6272526535096947,-2.6266685279212627,-2.62679488978325
49503.0,0.0001943111651314694,-0.9043819790341829,-2.626757338852565,-2.5002178550026244,-2.6264891179191014,-2.6271203311825193,-2.627083972344872,-2.6271936449043327,-2.627097085368286,-2.627257421881845,-2.626673892339932,-2.626800850248438
49504.0,0.00019133093253742843,-0.9041560774035546,-2.626748994201302,-2.4999907612789585,-2.6264885218725826,-2.627123907461632,-2.6270815881587968,-2.6271918567647763,-2.6271012576939174,-2.6272556337422888,-2.626670316060819,-2.6267936976902124
49505.0,0.00018954279298100387,-0.9039212350751442,-2.626745417922189,-2.4997600912761797,-2.6264771969887253,-2.6271131786242936,-2.627074435600571,-2.627184108160032,-2.6270917209496165,-2.6272478851375443,-2.62666495164215,-2.626788333271543
49506.0,0.00018596651386815476,-0.9036756639093952,-2.6267472060617454,-2.4993816017367365,-2.6264831574539134,-2.627115562810369,-2.627080396065759,-2.6271918567647763,-2.627093509089173,-2.6272502693236195,-2.6266667397817063,-2.626792505597175
49507.0,0.00019550325816908577,-0.9034718159999628,-2.6267561467595275,-2.4989655612666084,-2.6264897139656203,-2.627127483740745,-2.6270857604844284,-2.627193048857814,-2.6271036418799927,-2.627261594207477,-2.626676872572526,-2.6268002542019193
49508.0,0.00019490721165027757,-0.9032423380902217,-2.626754358619971,-2.4986705182397984,-2.626487925826064,-2.6271233114151133,-2.6270815881587968,-2.627187088392626,-2.627098873507842,-2.6272526535096947,-2.626670316060819,-2.6267966779228065
49509.0,0.00019073488601862025,-0.9029830578545401,-2.626748398154783,-2.498298585212062,-2.626483753500432,-2.627115562810369,-2.6270798000192404,-2.627187088392626,-2.627093509089173,-2.6272532495562135,-2.6266685279212627,-2.626792505597175
49510.0,0.00019252302557504482,-0.9027482155261297,-2.6267472060617454,-2.4981161949773067,-2.6264795811748005,-2.6271143707173312,-2.6270768197866463,-2.627183512113513,-2.627090528856579,-2.6272502693236195,-2.6266655476886687,-2.6267907174576184
49511.0,0.00018537046734934656,-0.9024549606388761,-2.62674482187567,-2.497887909160603,-2.6264789851282817,-2.627111986531256,-2.6270768197866463,-2.6271823200204754,-2.6270893367635413,-2.6272502693236195,-2.62666495164215,-2.6267871411785055
49512.0,0.0001889467464621957,-0.9021581294725095,-2.6267472060617454,-2.4976220724132148,-2.62648494559347,-2.627120927229038,-2.627080396065759,-2.627185896299588,-2.627095893275248,-2.627252057463176,-2.6266691239677815,-2.626792505597175
49513.0,0.00019609930468789395,-0.9018684508643687,-2.626739457457001,-2.497307955897803,-2.6264795811748005,-2.627111986531256,-2.6270726474610147,-2.627185896299588,-2.627086952577466,-2.6272472890910255,-2.6266661437351875,-2.626785353038949
49514.0,0.0001841783743117302,-0.9015555264419944,-2.6267507823408582,-2.496797740077703,-2.6264855416399886,-2.627121523275557,-2.627080396065759,-2.6271876844391446,-2.627097085368286,-2.627252057463176,-2.6266715081538567,-2.6267942937367312
49515.0,0.000193119072093853,-0.9012753845781546,-2.626751974433896,-2.49639421658447,-2.6264920981516955,-2.627127483740745,-2.627086952577466,-2.627195433043889,-2.627105430019549,-2.627264574440071,-2.6266786607120824,-2.626798466062363
49516.0,0.0001984834907631267,-0.9010488869010075,-2.6267567428060463,-2.4960753316969075,-2.6264944823377707,-2.6271262916477074,-2.6270863565309472,-2.6271948369973703,-2.6271012576939174,-2.627261594207477,-2.6266786607120824,-2.626798466062363
49517.0,0.00020146372335716765,-0.900752055734641,-2.6267537625734523,-2.4957707519257966,-2.6264891179191014,-2.627121523275557,-2.6270851644379096,-2.6271942409508515,-2.627099469554361,-2.627258613974883,-2.626676276526007,-2.6267990621088817
49518.0,0.0002050400024700168,-0.9004325748005598,-2.626754358619971,-2.4955102795970774,-2.626486733733026,-2.6271227153685945,-2.6270786079262027,-2.627189472578701,-2.627097085368286,-2.627251461416657,-2.626667335828225,-2.6267966779228065
49519.0,0.00019788744424431852,-0.9001208424712231,-2.6267561467595275,-2.495409547735399,-2.626487925826064,-2.6271191390894817,-2.6270851644379096,-2.627189472578701,-2.627096489321767,-2.6272556337422888,-2.626673892339932,-2.6267990621088817
49520.0,0.00019490721165027757,-0.8998120903744805,-2.6267525704804147,-2.4951800698256577,-2.626487925826064,-2.627126887694226,-2.6270863565309472,-2.6271936449043327,-2.6271018537404363,-2.6272568258353264,-2.6266727002468944,-2.626797870015844
49521.0,0.00019073488601862025,-0.899515259208114,-2.626748398154783,-2.4949380749390215,-2.6264831574539134,-2.627117946996444,-2.6270762237401275,-2.627182916066994,-2.627092913042654,-2.6272472890910255,-2.626667931874744,-2.6267936976902124
49522.0,0.00019252302557504482,-0.8992571710654701,-2.626748994201302,-2.4947741621463493,-2.626477793035244,-2.6271131786242936,-2.6270756276936087,-2.627184108160032,-2.62708993281006,-2.627248481184063,-2.6266685279212627,-2.62679488978325
49523.0,0.00019192697905623664,-0.8990229247835785,-2.6267501862943394,-2.494637667493542,-2.626484349546951,-2.6271197351360005,-2.6270798000192404,-2.627185896299588,-2.627096489321767,-2.6272532495562135,-2.6266661437351875,-2.626792505597175
49524.0,0.00019013883949981208,-0.8987755654782731,-2.626748398154783,-2.494501172840735,-2.62648494559347,-2.627121523275557,-2.627080396065759,-2.6271888765321822,-2.627096489321767,-2.6272526535096947,-2.626667931874744,-2.626791909550656
49525.0,0.00018954279298100387,-0.8985270140799301,-2.6267561467595275,-2.494346200745845,-2.6264885218725826,-2.6271221193220757,-2.6270857604844284,-2.627193048857814,-2.6271006616473986,-2.627258613974883,-2.6266727002468944,-2.626800850248438
49526.0,0.00018656256038696294,-0.8982778666350683,-2.626747802108264,-2.493904530275408,-2.6264855416399886,-2.627123907461632,-2.627080992112278,-2.627189472578701,-2.627098873507842,-2.62725503769577,-2.6266721042003756,-2.626791909550656
49527.0,0.0001996755838007431,-0.8980191824459055,-2.626748398154783,-2.49352842492204,-2.6264801772213193,-2.627118543042963,-2.6270756276936087,-2.6271823200204754,-2.6270947011822106,-2.627252057463176,-2.626667931874744,-2.6267936976902124
49528.0,0.00019609930468789395,-0.8977610943032616,-2.626754358619971,-2.4930027118924514,-2.6264861376865074,-2.6271227153685945,-2.6270821842053156,-2.6271882804856634,-2.627098873507842,-2.6272562297888076,-2.6266727002468944,-2.6267972739693253
49529.0,0.00018715860690577112,-0.8975208875561819,-2.6267501862943394,-2.492516337933104,-2.6264885218725826,-2.6271203311825193,-2.6270792039727215,-2.62719006862522,-2.6270976814148046,-2.6272568258353264,-2.6266715081538567,-2.626795485829769
49530.0,0.00018596651386815476,-0.8972771045299893,-2.6267561467595275,-2.4920830121139304,-2.6264855416399886,-2.6271191390894817,-2.6270857604844284,-2.6271906646717387,-2.6270941051356917,-2.627258017928364,-2.6266715081538567,-2.626800850248438
49531.0,0.00019550325816908577,-0.8970577594110679,-2.6267495902478206,-2.4915447821074466,-2.626481369314357,-2.6271161588568877,-2.6270798000192404,-2.6271888765321822,-2.6270952972287294,-2.6272556337422888,-2.6266661437351875,-2.6267942937367312
49532.0,0.0001889467464621957,-0.8968676205715681,-2.6267507823408582,-2.490983902333248,-2.6264861376865074,-2.627120927229038,-2.6270821842053156,-2.627187088392626,-2.627097085368286,-2.6272538456027323,-2.6266727002468944,-2.6267936976902124
49533.0,0.00018537046734934656,-0.8966774817320683,-2.6267495902478206,-2.490477262792261,-2.6264861376865074,-2.6271167549034065,-2.627078011879684,-2.6271847042065506,-2.627092913042654,-2.627251461416657,-2.6266691239677815,-2.626792505597175
49534.0,0.00020027163031955127,-0.896470057543523,-2.6267501862943394,-2.4901095020901565,-2.6264831574539134,-2.6271233114151133,-2.627080992112278,-2.6271912607182575,-2.627098873507842,-2.627251461416657,-2.6266697200143003,-2.6267936976902124
49535.0,0.00018954279298100387,-0.8962572689363085,-2.6267555507130087,-2.489837108831061,-2.6264891179191014,-2.6271233114151133,-2.6270827802518344,-2.627193048857814,-2.6271012576939174,-2.6272568258353264,-2.626676276526007,-2.626797870015844
49536.0,0.00019490721165027757,-0.8960206384683417,-2.6267507823408582,-2.489527164641281,-2.626487925826064,-2.6271227153685945,-2.6270815881587968,-2.627189472578701,-2.6270982774613234,-2.627258017928364,-2.626674488386451,-2.6267960818762877
49537.0,0.00019252302557504482,-0.8957840080003748,-2.6267567428060463,-2.4891123162641904,-2.626490906058658,-2.6271250995546698,-2.6270857604844284,-2.6271948369973703,-2.6270976814148046,-2.627261594207477,-2.626674488386451,-2.6268032344345134
49538.0,0.00019013883949981208,-0.8955372447415882,-2.6267561467595275,-2.4886235581187677,-2.6264926941982143,-2.627127483740745,-2.627086952577466,-2.627195433043889,-2.6271018537404363,-2.6272604021144392,-2.6266786607120824,-2.626801446294957
49539.0,0.00018954279298100387,-0.8952761763663503,-2.6267561467595275,-2.488239704160655,-2.6264944823377707,-2.627127483740745,-2.6270893367635413,-2.6271966251369268,-2.6271072181591055,-2.6272627863005145,-2.6266780646655636,-2.6267996581554005
49540.0,0.00019788744424431852,-0.8950019949676985,-2.6267537625734523,-2.487777768108579,-2.6264885218725826,-2.6271221193220757,-2.627083376298353,-2.6271912607182575,-2.627099469554361,-2.6272556337422888,-2.6266756804794884,-2.6267972739693253
49541.0,0.0001943111651314694,-0.8947343700807536,-2.626754358619971,-2.4872222527530496,-2.626490310012139,-2.6271250995546698,-2.627084568391391,-2.627196029090408,-2.627102449786955,-2.627260998160958,-2.6266786607120824,-2.626800850248438
49542.0,0.00019729139772551031,-0.8944554203099513,-2.6267555507130087,-2.4868622406556895,-2.626486733733026,-2.627123907461632,-2.62708993281006,-2.6271906646717387,-2.6271006616473986,-2.6272562297888076,-2.6266756804794884,-2.626798466062363
49543.0,0.0001984834907631267,-0.8941871993764876,-2.626751378387377,-2.4866452797228433,-2.6264855416399886,-2.6271227153685945,-2.627084568391391,-2.6271918567647763,-2.627099469554361,-2.6272568258353264,-2.6266721042003756,-2.6267960818762877
49544.0,0.00019669535120670213,-0.8939171903034675,-2.6267531665269335,-2.486441431813411,-2.6264861376865074,-2.6271250995546698,-2.627080396065759,-2.627187088392626,-2.6271006616473986,-2.6272532495562135,-2.6266721042003756,-2.6267966779228065
49545.0,0.00018715860690577112,-0.8936424128582969,-2.626748398154783,-2.4858334643642266,-2.626487329779545,-2.6271203311825193,-2.627083376298353,-2.627189472578701,-2.627096489321767,-2.6272538456027323,-2.6266691239677815,-2.6267931016436936
49546.0,0.00019729139772551031,-0.8933712116922392,-2.626764491410791,-2.485279141101735,-2.6264926941982143,-2.627127483740745,-2.6270887407170225,-2.6271948369973703,-2.6271036418799927,-2.627263978393552,-2.6266792567586013,-2.6268062146671074
49547.0,0.00019609930468789395,-0.893104778898332,-2.6267531665269335,-2.484893499004066,-2.626487329779545,-2.6271250995546698,-2.6270863565309472,-2.627193048857814,-2.6271006616473986,-2.6272562297888076,-2.626673296293413,-2.6267966779228065
49548.0,0.00019729139772551031,-0.8928431144765752,-2.626751378387377,-2.4845138173715853,-2.6264897139656203,-2.6271221193220757,-2.627086952577466,-2.6271948369973703,-2.6270982774613234,-2.627257421881845,-2.6266756804794884,-2.6267942937367312
49549.0,0.0001984834907631267,-0.8926297298228418,-2.6267436297826325,-2.4840888362036746,-2.62647481280265,-2.627111986531256,-2.6270732435075335,-2.6271847042065506,-2.627087548623985,-2.627246096997988,-2.6266631635025934,-2.626788929318062
49550.0,0.00018715860690577112,-0.8924282660994847,-2.6267561467595275,-2.4837812761999696,-2.626487925826064,-2.6271227153685945,-2.6270851644379096,-2.6271888765321822,-2.627095893275248,-2.6272562297888076,-2.626673892339932,-2.6267972739693253
49551.0,0.00018715860690577112,-0.8921952119106307,-2.6267567428060463,-2.4833872894510374,-2.626490310012139,-2.6271227153685945,-2.627083972344872,-2.6271912607182575,-2.627098873507842,-2.6272592100214016,-2.626673296293413,-2.6267990621088817
49552.0,0.00019550325816908577,-0.8919740786521528,-2.6267597230386404,-2.4829140285151037,-2.626493290244733,-2.627126887694226,-2.6270863565309472,-2.627196029090408,-2.6271018537404363,-2.6272592100214016,-2.6266786607120824,-2.6267996581554005
49553.0,0.0001984834907631267,-0.8917517533006374,-2.6267501862943394,-2.4825361350221793,-2.626486733733026,-2.6271197351360005,-2.6270821842053156,-2.6271906646717387,-2.627096489321767,-2.6272562297888076,-2.6266715081538567,-2.6267942937367312
49554.0,0.00019252302557504482,-0.8914978374836251,-2.626754358619971,-2.4822065212972784,-2.6264891179191014,-2.6271221193220757,-2.6270857604844284,-2.6271912607182575,-2.627096489321767,-2.6272562297888076,-2.626673296293413,-2.6267990621088817
49555.0,0.00019192697905623664,-0.8912254442245298,-2.6267561467595275,-2.481841144781249,-2.626490906058658,-2.6271250995546698,-2.627083972344872,-2.627193048857814,-2.6271012576939174,-2.627261594207477,-2.6266721042003756,-2.6267996581554005
49556.0,0.000183582327792922,-0.8909572232910661,-2.6267525704804147,-2.4816247798949216,-2.626486733733026,-2.627118543042963,-2.627083972344872,-2.6271918567647763,-2.627095893275248,-2.627257421881845,-2.6266721042003756,-2.626798466062363
49557.0,0.00019669535120670213,-0.8906782735202639,-2.626741841643076,-2.4813202001238106,-2.6264795811748005,-2.627112582577775,-2.6270756276936087,-2.6271817239739566,-2.6270881446705037,-2.6272472890910255,-2.626664355595631,-2.6267847569924303
49558.0,0.00020265581639478401,-0.8903742897956717,-2.626747802108264,-2.4810662843067983,-2.6264801772213193,-2.627115562810369,-2.6270821842053156,-2.6271912607182575,-2.6270947011822106,-2.62725503769577,-2.6266715081538567,-2.6267936976902124
49559.0,0.00019013883949981208,-0.8900923597922754,-2.6267531665269335,-2.4808296538388315,-2.626487925826064,-2.6271250995546698,-2.6270857604844284,-2.6271948369973703,-2.627102449786955,-2.6272598060679204,-2.626676276526007,-2.626798466062363
49560.0,0.00019133093253742843,-0.8897937404863525,-2.626763895364272,-2.4805816984870073,-2.626499250709921,-2.6271322521128955,-2.6270923169961353,-2.627199605369521,-2.6271066221125867,-2.6272681507191837,-2.6266810448981577,-2.6268085988531826
49561.0,0.000183582327792922,-0.8895052539712494,-2.6267656835038284,-2.480268774064633,-2.6264974625703648,-2.6271316560663767,-2.627092913042654,-2.627202585602115,-2.6271072181591055,-2.6272687467657025,-2.6266852172237893,-2.6268062146671074
49562.0,0.00019788744424431852,-0.8892310725725976,-2.6267621072247156,-2.479942140572326,-2.6264980586168836,-2.6271352323454895,-2.6270917209496165,-2.627199009323002,-2.627106026066068,-2.6272663625796273,-2.6266786607120824,-2.6268062146671074
49563.0,0.00019013883949981208,-0.8889163600106669,-2.626757338852565,-2.4796989535926524,-2.626493886291252,-2.6271262916477074,-2.6270893367635413,-2.627196029090408,-2.627103045833474,-2.627267554672665,-2.626680448851639,-2.6268020423414757
49564.0,0.00018954279298100387,-0.8886433707050527,-2.626760915131678,-2.479402122426286,-2.6264926941982143,-2.627128079787264,-2.62708993281006,-2.6271948369973703,-2.627103045833474,-2.627264574440071,-2.6266792567586013,-2.62680502257407
49565.0,0.0001883506999433875,-0.8883882627950028,-2.6267591269921216,-2.479138073818454,-2.6264915021051767,-2.6271322521128955,-2.627092913042654,-2.6271978172299644,-2.6271078142056243,-2.6272627863005145,-2.62667985280512,-2.626804426527551
49566.0,0.00019490721165027757,-0.8881331548849529,-2.626757934899084,-2.478743491023003,-2.626487925826064,-2.6271256956011886,-2.6270893367635413,-2.627195433043889,-2.6271006616473986,-2.6272627863005145,-2.626677468619045,-2.6267996581554005
49567.0,0.00018537046734934656,-0.8878756627888278,-2.626761511178197,-2.4783679817161537,-2.626493290244733,-2.6271298679268202,-2.627090528856579,-2.6271966251369268,-2.6271048339730303,-2.627261594207477,-2.626677468619045,-2.626803830481032
49568.0,0.00018596651386815476,-0.8875841960411306,-2.6267472060617454,-2.4780818793871258,-2.6264831574539134,-2.627115562810369,-2.6270815881587968,-2.627187088392626,-2.627093509089173,-2.6272532495562135,-2.626670912107338,-2.626791909550656
49569.0,0.00019013883949981208,-0.8873278960380431,-2.62675495466649,-2.477938232176093,-2.6264885218725826,-2.6271203311825193,-2.627083972344872,-2.6271888765321822,-2.6270952972287294,-2.627254441649251,-2.6266715081538567,-2.6267966779228065
49570.0,0.00019252302557504482,-0.8870584830115418,-2.62675495466649,-2.4776563021726967,-2.6264891179191014,-2.6271250995546698,-2.6270821842053156,-2.627196029090408,-2.627099469554361,-2.627258613974883,-2.6266750844329696,-2.6268002542019193
49571.0,0.00018596651386815476,-0.8868111237062364,-2.6267531665269335,-2.477281984958885,-2.6264885218725826,-2.6271227153685945,-2.6270827802518344,-2.6271912607182575,-2.6270976814148046,-2.6272568258353264,-2.6266750844329696,-2.626798466062363
49572.0,0.00019192697905623664,-0.886560188121818,-2.6267525704804147,-2.476832565883704,-2.6264855416399886,-2.6271191390894817,-2.6270792039727215,-2.6271847042065506,-2.627093509089173,-2.6272508653701383,-2.6266697200143003,-2.626797870015844
49573.0,0.00019192697905623664,-0.8862877948627227,-2.6267537625734523,-2.476415929367057,-2.6264885218725826,-2.627117946996444,-2.6270851644379096,-2.6271918567647763,-2.6270941051356917,-2.627254441649251,-2.626676276526007,-2.6267966779228065
49574.0,0.00020146372335716765,-0.8860726220694329,-2.626754358619971,-2.4761834712247217,-2.6264926941982143,-2.6271256956011886,-2.6270863565309472,-2.6271966251369268,-2.627102449786955,-2.627258613974883,-2.6266756804794884,-2.6268002542019193
49575.0,0.0001984834907631267,-0.8858747346251886,-2.626751974433896,-2.475977239129214,-2.626486733733026,-2.6271221193220757,-2.6270851644379096,-2.6271888765321822,-2.627098873507842,-2.6272562297888076,-2.6266727002468944,-2.6267966779228065
49576.0,0.00019252302557504482,-0.8856786353205007,-2.6267495902478206,-2.4756839842419605,-2.62648494559347,-2.6271197351360005,-2.6270851644379096,-2.6271906646717387,-2.6270976814148046,-2.6272556337422888,-2.6266721042003756,-2.62679488978325
49577.0,0.0001943111651314694,-0.8855165106673849,-2.6267501862943394,-2.475483712611641,-2.6264861376865074,-2.627124503508151,-2.6270798000192404,-2.627186492346107,-2.627096489321767,-2.627249077230582,-2.626667335828225,-2.626791313504137
49578.0,0.00019073488601862025,-0.8853520018281938,-2.6267525704804147,-2.4753859609825564,-2.6264891179191014,-2.6271221193220757,-2.6270827802518344,-2.6271918567647763,-2.6270982774613234,-2.627258017928364,-2.626670912107338,-2.6267942937367312
49579.0,0.00019907953728193488,-0.8851487499652803,-2.6267525704804147,-2.4752762884230957,-2.626487925826064,-2.6271233114151133,-2.6270851644379096,-2.6271906646717387,-2.6271006616473986,-2.62725503769577,-2.6266727002468944,-2.626795485829769
49580.0,0.00019490721165027757,-0.8849365574045845,-2.6267525704804147,-2.475063499815881,-2.626487329779545,-2.6271233114151133,-2.6270815881587968,-2.6271912607182575,-2.62710006560088,-2.627257421881845,-2.6266721042003756,-2.6267966779228065
49581.0,0.00018656256038696294,-0.8847118478669939,-2.626751974433896,-2.4748298495805083,-2.6264861376865074,-2.627121523275557,-2.6270827802518344,-2.627189472578701,-2.6270941051356917,-2.62725503769577,-2.6266721042003756,-2.6267936976902124
49582.0,0.00020027163031955127,-0.8844901185619972,-2.6267430337361137,-2.47451394492554,-2.6264801772213193,-2.6271143707173312,-2.627080396065759,-2.6271853002530694,-2.6270917209496165,-2.627249077230582,-2.6266697200143003,-2.626788929318062
49583.0,0.00019013883949981208,-0.8842958073968658,-2.626741841643076,-2.4742642014341594,-2.6264766009422065,-2.6271101983916996,-2.6270726474610147,-2.6271799358344,-2.6270857604844284,-2.62724490490495,-2.626661971409556,-2.6267847569924303
49584.0,0.00019550325816908577,-0.8841128211155916,-2.62674482187567,-2.4740466444547944,-2.626477793035244,-2.6271131786242936,-2.6270726474610147,-2.627182916066994,-2.6270863565309472,-2.6272472890910255,-2.6266625674560746,-2.6267871411785055
49585.0,0.00018954279298100387,-0.8838988404153395,-2.6267460139687078,-2.4738016693355642,-2.626481369314357,-2.6271143707173312,-2.627074435600571,-2.6271847042065506,-2.6270911249030977,-2.6272478851375443,-2.626667931874744,-2.626788333271543
49586.0,0.00019252302557504482,-0.8836133341328304,-2.6267501862943394,-2.4735358325881758,-2.626483753500432,-2.6271161588568877,-2.6270768197866463,-2.6271853002530694,-2.627092913042654,-2.627248481184063,-2.626667335828225,-2.6267942937367312
49587.0,0.00019013883949981208,-0.8833021978500125,-2.6267442258291513,-2.4734404651451665,-2.6264789851282817,-2.627112582577775,-2.6270738395540523,-2.6271823200204754,-2.6270881446705037,-2.6272496732771007,-2.626664355595631,-2.6267871411785055
49588.0,0.00018537046734934656,-0.8830417255212933,-2.62674482187567,-2.4732258883983955,-2.626483753500432,-2.627117946996444,-2.6270762237401275,-2.6271853002530694,-2.6270952972287294,-2.627252057463176,-2.626667335828225,-2.6267907174576184
49589.0,0.00020027163031955127,-0.8828229764488907,-2.6267406495500385,-2.472970184441827,-2.6264795811748005,-2.6271101983916996,-2.6270762237401275,-2.6271817239739566,-2.6270893367635413,-2.6272466930445066,-2.62666495164215,-2.6267841609459115
49590.0,0.0001889467464621957,-0.8826423743536919,-2.6267472060617454,-2.4726876583919117,-2.626484349546951,-2.6271173509499253,-2.6270768197866463,-2.627184108160032,-2.627096489321767,-2.627252057463176,-2.6266661437351875,-2.626791313504137
49591.0,0.00018715860690577112,-0.8824164727230636,-2.626738861410482,-2.4724021521094026,-2.626478389081763,-2.6271137746708124,-2.6270762237401275,-2.627183512113513,-2.6270887407170225,-2.627245500951469,-2.6266625674560746,-2.6267835648993927
49592.0,0.000193119072093853,-0.8820975878355012,-2.62674482187567,-2.4720391597794484,-2.626481369314357,-2.6271173509499253,-2.6270792039727215,-2.627187088392626,-2.627093509089173,-2.6272532495562135,-2.6266691239677815,-2.6267907174576184
49593.0,0.0001943111651314694,-0.8818049289947664,-2.6267531665269335,-2.4715545739596574,-2.626483753500432,-2.6271191390894817,-2.627080396065759,-2.6271888765321822,-2.627095893275248,-2.6272538456027323,-2.626667335828225,-2.6267942937367312
49594.0,0.00019907953728193488,-0.8815212108518137,-2.626742437689595,-2.4710354174417755,-2.6264760048956877,-2.627111390484737,-2.6270708593214582,-2.627182916066994,-2.6270887407170225,-2.6272472890910255,-2.626660779316518,-2.6267871411785055
49595.0,0.00019669535120670213,-0.8812410689879738,-2.6267472060617454,-2.47059315092482,-2.6264855416399886,-2.6271197351360005,-2.6270792039727215,-2.627185896299588,-2.6270941051356917,-2.6272532495562135,-2.626670316060819,-2.6267936976902124
49596.0,0.00019073488601862025,-0.8809549666589459,-2.626751974433896,-2.4701496923148265,-2.626487329779545,-2.6271221193220757,-2.6270827802518344,-2.62719006862522,-2.6270982774613234,-2.627258613974883,-2.626674488386451,-2.6267972739693253
49597.0,0.000193119072093853,-0.8806605196786547,-2.6267501862943394,-2.4697640502171576,-2.626483753500432,-2.6271227153685945,-2.6270786079262027,-2.6271888765321822,-2.62710006560088,-2.6272526535096947,-2.626667335828225,-2.6267936976902124
49598.0,0.00019252302557504482,-0.8803821659543712,-2.626751378387377,-2.469333704630578,-2.626487925826064,-2.6271221193220757,-2.627080396065759,-2.62719006862522,-2.6270982774613234,-2.6272526535096947,-2.626670912107338,-2.6267936976902124
49599.0,0.0001943111651314694,-0.8801151371139452,-2.626748994201302,-2.469048198348069,-2.6264861376865074,-2.6271197351360005,-2.6270792039727215,-2.6271906646717387,-2.6270952972287294,-2.6272538456027323,-2.626670912107338,-2.626791909550656
49600.0,0.0001883506999433875,-0.8798260545523232,-2.626754358619971,-2.468747194856071,-2.626487329779545,-2.6271191390894817,-2.6270857604844284,-2.6271918567647763,-2.627096489321767,-2.62725503769577,-2.6266727002468944,-2.626798466062363
49601.0,0.00018596651386815476,-0.8795494889675962,-2.62674482187567,-2.4684342704336966,-2.6264831574539134,-2.627120927229038,-2.627078011879684,-2.6271853002530694,-2.6270982774613234,-2.627252057463176,-2.6266655476886687,-2.6267895253645808
49602.0,0.00018954279298100387,-0.8792759036154633,-2.626742437689595,-2.468183930895797,-2.626480773267838,-2.627118543042963,-2.6270768197866463,-2.627185896299588,-2.6270941051356917,-2.627251461416657,-2.626667931874744,-2.6267847569924303
49603.0,0.00019729139772551031,-0.8789898012864353,-2.6267460139687078,-2.4679306111253037,-2.626484349546951,-2.6271161588568877,-2.6270786079262027,-2.6271847042065506,-2.627090528856579,-2.6272502693236195,-2.6266667397817063,-2.6267901214110996
49604.0,0.00019073488601862025,-0.8786816452362114,-2.6267460139687078,-2.4676552376336143,-2.6264819653608757,-2.627118543042963,-2.627078011879684,-2.627183512113513,-2.627093509089173,-2.627251461416657,-2.626670316060819,-2.6267901214110996
49605.0,0.00019013883949981208,-0.8783931587211082,-2.6267507823408582,-2.4674090704213465,-2.626484349546951,-2.6271161588568877,-2.6270792039727215,-2.6271882804856634,-2.6270923169961353,-2.6272556337422888,-2.626664355595631,-2.626792505597175
49606.0,0.00018954279298100387,-0.8780945394151853,-2.62675495466649,-2.4671885332093875,-2.626490906058658,-2.6271286758337826,-2.627086952577466,-2.6271966251369268,-2.6271048339730303,-2.6272621902539957,-2.6266792567586013,-2.6268020423414757
49607.0,0.00019490721165027757,-0.8778477761563988,-2.626751378387377,-2.4669453462297137,-2.626483753500432,-2.627123907461632,-2.6270821842053156,-2.62719006862522,-2.62710006560088,-2.6272568258353264,-2.6266721042003756,-2.6267960818762877
49608.0,0.000193119072093853,-0.877601608944131,-2.626748398154783,-2.4668243487863957,-2.6264855416399886,-2.6271167549034065,-2.627080992112278,-2.6271876844391446,-2.6270947011822106,-2.62725503769577,-2.6266691239677815,-2.626792505597175
49609.0,0.00019788744424431852,-0.8773012014986517,-2.6267472060617454,-2.466583545992797,-2.6264819653608757,-2.6271161588568877,-2.627080992112278,-2.6271823200204754,-2.6270917209496165,-2.627249077230582,-2.6266685279212627,-2.6267907174576184
49610.0,0.00018537046734934656,-0.8770115228905109,-2.626738861410482,-2.4663707573855826,-2.626475408849169,-2.6271107944382184,-2.627071455367977,-2.6271781476948437,-2.6270851644379096,-2.627245500951469,-2.6266625674560746,-2.6267847569924303
49611.0,0.00019192697905623664,-0.8767337652127463,-2.6267436297826325,-2.4662467797096705,-2.6264801772213193,-2.627115562810369,-2.627078011879684,-2.627187088392626,-2.6270917209496165,-2.627252057463176,-2.6266655476886687,-2.626788929318062
49612.0,0.0001937151186126612,-0.8764315696277105,-2.626748398154783,-2.4659171659847696,-2.626486733733026,-2.6271197351360005,-2.627080396065759,-2.627189472578701,-2.627095893275248,-2.6272526535096947,-2.626670316060819,-2.6267901214110996
49613.0,0.00019133093253742843,-0.8761299700891936,-2.62674482187567,-2.465545829003552,-2.6264825614073946,-2.6271173509499253,-2.6270756276936087,-2.6271853002530694,-2.62708993281006,-2.6272496732771007,-2.6266667397817063,-2.626788929318062
49614.0,0.00018715860690577112,-0.8758355231089023,-2.626748994201302,-2.465102370393559,-2.6264861376865074,-2.6271173509499253,-2.6270815881587968,-2.6271853002530694,-2.6270952972287294,-2.627254441649251,-2.626670316060819,-2.6267942937367312
49615.0,0.0001937151186126612,-0.8755404800820923,-2.6267507823408582,-2.4646368580623697,-2.6264831574539134,-2.6271191390894817,-2.627080992112278,-2.627183512113513,-2.627092913042654,-2.6272532495562135,-2.626667931874744,-2.6267936976902124
49616.0,0.00019907953728193488,-0.8752651065904029,-2.626751378387377,-2.4642762499184907,-2.626483753500432,-2.627118543042963,-2.627080396065759,-2.6271823200204754,-2.6270923169961353,-2.6272508653701383,-2.626670912107338,-2.626795485829769
49617.0,0.00019490721165027757,-0.8750094026338342,-2.6267472060617454,-2.464005048752433,-2.626483753500432,-2.6271191390894817,-2.627080396065759,-2.627185896299588,-2.6270941051356917,-2.627251461416657,-2.6266685279212627,-2.6267907174576184
49618.0,0.00018954279298100387,-0.8747912496079504,-2.6267531665269335,-2.463681991539239,-2.62648494559347,-2.627118543042963,-2.6270792039727215,-2.627186492346107,-2.6270952972287294,-2.6272538456027323,-2.6266715081538567,-2.626795485829769
49619.0,0.000193119072093853,-0.874546870535239,-2.6267567428060463,-2.4634191350244445,-2.626490906058658,-2.627128079787264,-2.6270887407170225,-2.627196029090408,-2.6271048339730303,-2.6272621902539957,-2.6266780646655636,-2.626804426527551
49620.0,0.00018179418823649742,-0.874310836113791,-2.626757338852565,-2.463103230369476,-2.6264944823377707,-2.6271262916477074,-2.62708993281006,-2.627193048857814,-2.6271036418799927,-2.6272604021144392,-2.626676872572526,-2.6268020423414757
49621.0,0.0001984834907631267,-0.8740449993664026,-2.626748994201302,-2.462799246644884,-2.626487925826064,-2.627120927229038,-2.627083376298353,-2.627189472578701,-2.627098873507842,-2.6272538456027323,-2.626673892339932,-2.6267942937367312
49622.0,0.0001996755838007431,-0.8737720100607884,-2.6267567428060463,-2.462432081989298,-2.6264861376865074,-2.627124503508151,-2.6270851644379096,-2.627192452811295,-2.6271006616473986,-2.627258613974883,-2.626673296293413,-2.6268002542019193
49623.0,0.00019490721165027757,-0.873521670522889,-2.6267567428060463,-2.4620023324492375,-2.6264926941982143,-2.627127483740745,-2.627086952577466,-2.6271906646717387,-2.6271036418799927,-2.6272633823470333,-2.62667985280512,-2.626801446294957
49624.0,0.0001937151186126612,-0.8732671586593579,-2.6267561467595275,-2.4616768910499682,-2.626486733733026,-2.6271173509499253,-2.627086952577466,-2.627193048857814,-2.627096489321767,-2.6272604021144392,-2.6266750844329696,-2.6267990621088817
49625.0,0.00019192697905623664,-0.873012050749308,-2.6267555507130087,-2.461577947327846,-2.6264915021051767,-2.6271250995546698,-2.6270851644379096,-2.627196029090408,-2.6271012576939174,-2.6272598060679204,-2.626673296293413,-2.626798466062363
49626.0,0.0001943111651314694,-0.8727593270253333,-2.626751974433896,-2.4613186670921645,-2.6264861376865074,-2.6271191390894817,-2.627083376298353,-2.6271936449043327,-2.627097085368286,-2.627257421881845,-2.626673892339932,-2.626795485829769
49627.0,0.00019729139772551031,-0.8725221005108477,-2.626760915131678,-2.461061771042558,-2.626493290244733,-2.627126887694226,-2.62708993281006,-2.6271942409508515,-2.6271012576939174,-2.6272627863005145,-2.6266756804794884,-2.626804426527551
49628.0,0.0001937151186126612,-0.8723009672523698,-2.6267537625734523,-2.4609240842967135,-2.6264920981516955,-2.6271227153685945,-2.627084568391391,-2.6271942409508515,-2.627098873507842,-2.627257421881845,-2.626676872572526,-2.626798466062363
49629.0,0.00019252302557504482,-0.8720834102730048,-2.6267531665269335,-2.4607339454572137,-2.626486733733026,-2.6271203311825193,-2.6270821842053156,-2.6271912607182575,-2.6270952972287294,-2.6272562297888076,-2.626670316060819,-2.626800850248438
49630.0,0.00019609930468789395,-0.8718253221303609,-2.6267507823408582,-2.4605426145246763,-2.62648494559347,-2.6271227153685945,-2.6270827802518344,-2.6271882804856634,-2.627098873507842,-2.6272556337422888,-2.6266727002468944,-2.6267960818762877
49631.0,0.00019490721165027757,-0.871539219801333,-2.6267495902478206,-2.46017068149694,-2.626480773267838,-2.6271137746708124,-2.627078011879684,-2.6271882804856634,-2.627092913042654,-2.627249077230582,-2.6266691239677815,-2.626791313504137
49632.0,0.0001841783743117302,-0.8713109339846294,-2.6267436297826325,-2.4598017287017977,-2.6264855416399886,-2.62711496676385,-2.6270756276936087,-2.627186492346107,-2.627092913042654,-2.6272502693236195,-2.62666495164215,-2.6267895253645808
49633.0,0.00019192697905623664,-0.8710576142141359,-2.626748994201302,-2.4595501970708606,-2.6264819653608757,-2.627118543042963,-2.6270798000192404,-2.627186492346107,-2.627096489321767,-2.6272532495562135,-2.626670316060819,-2.626792505597175
49634.0,0.000193119072093853,-0.8708245600252819,-2.6267501862943394,-2.459219391252922,-2.626486733733026,-2.627117946996444,-2.6270786079262027,-2.6271853002530694,-2.6270947011822106,-2.627254441649251,-2.626667931874744,-2.6267931016436936
49635.0,0.0001943111651314694,-0.8705980623481347,-2.626745417922189,-2.458911831249217,-2.6264801772213193,-2.6271137746708124,-2.6270726474610147,-2.6271793397878813,-2.6270887407170225,-2.627245500951469,-2.6266637595491122,-2.6267865451319867
49636.0,0.00019609930468789395,-0.870342358391566,-2.626751378387377,-2.4587264607818677,-2.626484349546951,-2.6271197351360005,-2.627080396065759,-2.6271882804856634,-2.6270952972287294,-2.6272532495562135,-2.6266715081538567,-2.62679488978325
49637.0,0.00019490721165027757,-0.8701146686213813,-2.6267501862943394,-2.4585875819429854,-2.6264861376865074,-2.6271173509499253,-2.627080396065759,-2.627185896299588,-2.6270923169961353,-2.6272526535096947,-2.6266667397817063,-2.6267960818762877
49638.0,0.00019192697905623664,-0.8698571765252562,-2.626745417922189,-2.4584945986860514,-2.6264825614073946,-2.627115562810369,-2.627077415833165,-2.627187088392626,-2.6270941051356917,-2.627251461416657,-2.626670912107338,-2.6267895253645808
49639.0,0.000193119072093853,-0.869609221173432,-2.6267412455965573,-2.458321149149078,-2.6264766009422065,-2.627108410252143,-2.627072051414496,-2.6271799358344,-2.6270851644379096,-2.6272466930445066,-2.626661971409556,-2.6267865451319867
49640.0,0.00019192697905623664,-0.8693743788450216,-2.626741841643076,-2.4582859824044685,-2.6264795811748005,-2.6271101983916996,-2.627071455367977,-2.6271811279274377,-2.6270851644379096,-2.627245500951469,-2.626661971409556,-2.6267865451319867
49641.0,0.00018954279298100387,-0.8691055618650391,-2.626748994201302,-2.458148295658624,-2.6264801772213193,-2.627115562810369,-2.627077415833165,-2.627187088392626,-2.62708993281006,-2.6272496732771007,-2.6266691239677815,-2.626791909550656
49642.0,0.0001937151186126612,-0.8688421093037259,-2.626751974433896,-2.4580123970523355,-2.626483753500432,-2.6271173509499253,-2.6270792039727215,-2.627186492346107,-2.6270917209496165,-2.6272496732771007,-2.6266667397817063,-2.6267931016436936
49643.0,0.0001943111651314694,-0.8685685239515929,-2.62674482187567,-2.4578037807707527,-2.626481369314357,-2.6271161588568877,-2.6270786079262027,-2.6271853002530694,-2.62708993281006,-2.6272502693236195,-2.6266655476886687,-2.626788929318062
49644.0,0.0001877546534245793,-0.8682961306924976,-2.6267442258291513,-2.457463438208513,-2.626477793035244,-2.6271137746708124,-2.6270762237401275,-2.627184108160032,-2.6270887407170225,-2.627252057463176,-2.626667335828225,-2.6267901214110996
49645.0,0.00018179418823649742,-0.868055327898899,-2.626739457457001,-2.457125479832349,-2.6264742167561312,-2.627111390484737,-2.627072051414496,-2.6271793397878813,-2.6270893367635413,-2.6272472890910255,-2.626661971409556,-2.626782968852874
49646.0,0.00019192697905623664,-0.867816313244857,-2.6267430337361137,-2.4568101712238994,-2.6264795811748005,-2.6271167549034065,-2.62707503164709,-2.627182916066994,-2.627090528856579,-2.6272472890910255,-2.6266625674560746,-2.626782968852874
49647.0,0.0001877546534245793,-0.8676130613819434,-2.6267537625734523,-2.4564984388945628,-2.626490906058658,-2.6271173509499253,-2.6270827802518344,-2.6271882804856634,-2.627092913042654,-2.62725503769577,-2.6266721042003756,-2.626798466062363
49648.0,0.0001943111651314694,-0.8674020609142853,-2.6267442258291513,-2.4560734577266525,-2.6264825614073946,-2.6271161588568877,-2.6270756276936087,-2.627185896299588,-2.6270917209496165,-2.627252057463176,-2.626667931874744,-2.626788929318062
49649.0,0.00019133093253742843,-0.867179139516251,-2.6267507823408582,-2.455590660046418,-2.6264885218725826,-2.627117946996444,-2.6270815881587968,-2.6271966251369268,-2.627095893275248,-2.627258613974883,-2.626673892339932,-2.6267936976902124
49650.0,0.0001937151186126612,-0.8669878085837136,-2.626751378387377,-2.4551191872500406,-2.6264861376865074,-2.6271203311825193,-2.627083972344872,-2.6271847042065506,-2.627095893275248,-2.62725503769577,-2.6266691239677815,-2.6267942937367312
49651.0,0.0001883506999433875,-0.8667869409068752,-2.6267525704804147,-2.4548175877115237,-2.6264861376865074,-2.627117946996444,-2.6270821842053156,-2.6271918567647763,-2.6270941051356917,-2.6272562297888076,-2.6266750844329696,-2.6267960818762877
49652.0,0.0001996755838007431,-0.8665985902069319,-2.626751378387377,-2.4545350616616086,-2.626487925826064,-2.6271197351360005,-2.627080992112278,-2.627189472578701,-2.627093509089173,-2.6272562297888076,-2.6266697200143003,-2.6267931016436936
49653.0,0.00020444395595120858,-0.8664281209025527,-2.6267430337361137,-2.4543145244496496,-2.626477793035244,-2.6271137746708124,-2.627074435600571,-2.627184108160032,-2.6270881446705037,-2.627248481184063,-2.6266637595491122,-2.6267895253645808
49654.0,0.000193119072093853,-0.8662701685750686,-2.626739457457001,-2.4540224616554336,-2.6264771969887253,-2.6271137746708124,-2.627068475135383,-2.6271757635087685,-2.62708993281006,-2.6272466930445066,-2.6266589911769618,-2.626782372806355
49655.0,0.00019729139772551031,-0.8660812218286064,-2.62674482187567,-2.45357423467329,-2.6264789851282817,-2.6271143707173312,-2.6270762237401275,-2.627183512113513,-2.6270923169961353,-2.6272508653701383,-2.626667335828225,-2.626788929318062
49656.0,0.0001996755838007431,-0.8659006197334075,-2.6267472060617454,-2.453150445598417,-2.6264789851282817,-2.6271107944382184,-2.6270738395540523,-2.627180531880919,-2.627086952577466,-2.6272466930445066,-2.626661375363037,-2.626791313504137
49657.0,0.0001877546534245793,-0.8657325346151036,-2.6267436297826325,-2.4530574623414827,-2.626478389081763,-2.6271101983916996,-2.6270738395540523,-2.6271853002530694,-2.6270887407170225,-2.6272478851375443,-2.626661971409556,-2.6267877372250243
49658.0,0.00019669535120670213,-0.8655692178689501,-2.6267460139687078,-2.452811295129215,-2.6264795811748005,-2.6271167549034065,-2.62707503164709,-2.627182916066994,-2.6270923169961353,-2.627249077230582,-2.6266661437351875,-2.6267895253645808
49659.0,0.00018537046734934656,-0.8653570253082544,-2.626732900945294,-2.452419096519839,-2.626468852337462,-2.6271018537404363,-2.6270643028097513,-2.6271727832761744,-2.6270798000192404,-2.6272353681606493,-2.6266530307117737,-2.6267776044342046
49660.0,0.0001889467464621957,-0.8651561576314161,-2.62674482187567,-2.4519708695376954,-2.6264771969887253,-2.6271143707173312,-2.627074435600571,-2.6271817239739566,-2.627090528856579,-2.627248481184063,-2.626661971409556,-2.626788929318062
49661.0,0.00019490721165027757,-0.8649505215824272,-2.626745417922189,-2.4516877474412615,-2.626480773267838,-2.6271161588568877,-2.627077415833165,-2.627184108160032,-2.6270941051356917,-2.6272508653701383,-2.6266655476886687,-2.6267907174576184
49662.0,0.00019073488601862025,-0.864771111580266,-2.626738861410482,-2.4513366760416835,-2.626471236523537,-2.627108410252143,-2.6270672830423454,-2.627171591183137,-2.6270827802518344,-2.627243116765394,-2.6266589911769618,-2.6267835648993927
49663.0,0.00019729139772551031,-0.8646030264619621,-2.6267412455965573,-2.451040440921836,-2.626475408849169,-2.627112582577775,-2.627074435600571,-2.627180531880919,-2.6270881446705037,-2.6272443088584314,-2.6266595872234806,-2.626785353038949
49664.0,0.00018954279298100387,-0.8644361334366958,-2.626742437689595,-2.4507680476627405,-2.62647481280265,-2.6271131786242936,-2.6270708593214582,-2.6271787437413625,-2.627090528856579,-2.62724490490495,-2.6266625674560746,-2.626788929318062
49665.0,0.0001877546534245793,-0.8642918901791442,-2.626736477224407,-2.4503919423093725,-2.626468256290943,-2.6271066221125867,-2.6270666869958266,-2.6271751674622497,-2.6270815881587968,-2.6272383483932433,-2.626655414897849,-2.626776412341167
49666.0,0.000193119072093853,-0.8640981750605315,-2.6267406495500385,-2.4500819981195923,-2.6264771969887253,-2.6271101983916996,-2.6270696672284206,-2.6271793397878813,-2.6270863565309472,-2.6272443088584314,-2.6266601832699994,-2.626782968852874
49667.0,0.00019550325816908577,-0.863894923197618,-2.62674482187567,-2.4497976839301208,-2.626481369314357,-2.62711496676385,-2.6270756276936087,-2.6271799358344,-2.6270917209496165,-2.6272466930445066,-2.62666495164215,-2.6267865451319867
49668.0,0.00018715860690577112,-0.8636821345904034,-2.626742437689595,-2.4495968162532824,-2.6264825614073946,-2.62711496676385,-2.6270792039727215,-2.6271847042065506,-2.6270911249030977,-2.6272496732771007,-2.6266667397817063,-2.6267865451319867
49669.0,0.00019133093253742843,-0.8634639815645196,-2.6267317088522564,-2.449362569971391,-2.626468256290943,-2.6271036418799927,-2.6270672830423454,-2.6271727832761744,-2.627080396065759,-2.6272353681606493,-2.6266566069908865,-2.626776412341167
49670.0,0.00018537046734934656,-0.8632404641199665,-2.6267370732709256,-2.4492892562495774,-2.6264730246630936,-2.6271042379265115,-2.627072051414496,-2.627174571415731,-2.627083972344872,-2.6272413286258374,-2.626657799083924,-2.6267817767598363
49671.0,0.0001782179091236483,-0.8630103901637065,-2.6267376693174445,-2.4491646825271465,-2.6264742167561312,-2.627109006298662,-2.6270702632749394,-2.6271751674622497,-2.6270857604844284,-2.6272443088584314,-2.626658395130443,-2.6267835648993927
49672.0,0.00019192697905623664,-0.8627809122539654,-2.6267430337361137,-2.4488916932215323,-2.6264771969887253,-2.627111986531256,-2.6270756276936087,-2.6271817239739566,-2.627087548623985,-2.627248481184063,-2.626661971409556,-2.6267847569924303
49673.0,0.0002038479094324004,-0.8625472620185926,-2.6267430337361137,-2.448581749031752,-2.626481369314357,-2.6271107944382184,-2.6270738395540523,-2.627180531880919,-2.6270887407170225,-2.6272496732771007,-2.626660779316518,-2.6267865451319867
49674.0,0.0001937151186126612,-0.8623183801553702,-2.626745417922189,-2.448286109958423,-2.626478389081763,-2.6271143707173312,-2.627078011879684,-2.627180531880919,-2.6270911249030977,-2.627251461416657,-2.626664355595631,-2.6267895253645808
49675.0,0.00019013883949981208,-0.8621020152690428,-2.6267436297826325,-2.4481013355375927,-2.6264795811748005,-2.627111986531256,-2.6270762237401275,-2.627187088392626,-2.6270893367635413,-2.6272478851375443,-2.6266655476886687,-2.626788333271543
49676.0,0.00019073488601862025,-0.8619434668950399,-2.6267495902478206,-2.4479553041404847,-2.626484349546951,-2.6271173509499253,-2.627080396065759,-2.627183512113513,-2.627090528856579,-2.627252057463176,-2.626670912107338,-2.6267931016436936
49677.0,0.00020265581639478401,-0.8617354466599758,-2.6267501862943394,-2.447973185536049,-2.626486733733026,-2.627121523275557,-2.627078011879684,-2.627186492346107,-2.627099469554361,-2.62725503769577,-2.626670912107338,-2.6267942937367312
49678.0,0.00019788744424431852,-0.8615304066575058,-2.6267460139687078,-2.4479123887911305,-2.626483753500432,-2.6271161588568877,-2.627072051414496,-2.627183512113513,-2.6270911249030977,-2.6272496732771007,-2.62666495164215,-2.6267877372250243
49679.0,0.00018537046734934656,-0.8613450361901565,-2.6267460139687078,-2.4478527841392497,-2.6264795811748005,-2.62711496676385,-2.6270708593214582,-2.6271787437413625,-2.6270893367635413,-2.6272478851375443,-2.626661375363037,-2.6267871411785055
49680.0,0.00019669535120670213,-0.8611602617693259,-2.6267442258291513,-2.44777768227788,-2.6264825614073946,-2.627115562810369,-2.627077415833165,-2.627182916066994,-2.6270941051356917,-2.627252057463176,-2.6266655476886687,-2.626792505597175
49681.0,0.00019788744424431852,-0.8610142303722179,-2.6267406495500385,-2.4478134450690083,-2.6264766009422065,-2.6271096023451808,-2.627071455367977,-2.6271787437413625,-2.627086952577466,-2.627245500951469,-2.626661375363037,-2.626785949085468
49682.0,0.00019192697905623664,-0.8608437610678388,-2.6267430337361137,-2.447901659953792,-2.626477793035244,-2.6271101983916996,-2.6270738395540523,-2.6271787437413625,-2.6270863565309472,-2.627248481184063,-2.626660779316518,-2.626785949085468
49683.0,0.00018715860690577112,-0.8606673312982716,-2.6267460139687078,-2.448035174374005,-2.626481369314357,-2.627115562810369,-2.627078011879684,-2.627186492346107,-2.627092913042654,-2.627249077230582,-2.6266667397817063,-2.6267931016436936
49684.0,0.00019133093253742843,-0.860513551296419,-2.626747802108264,-2.4480637846069078,-2.626477793035244,-2.627109006298662,-2.6270708593214582,-2.627183512113513,-2.6270851644379096,-2.627248481184063,-2.626661971409556,-2.6267901214110996
49685.0,0.0001996755838007431,-0.860339505712927,-2.62674482187567,-2.4480959711189234,-2.6264766009422065,-2.627112582577775,-2.6270726474610147,-2.6271823200204754,-2.627090528856579,-2.627248481184063,-2.626667335828225,-2.6267865451319867
49686.0,0.000193119072093853,-0.8601666522224727,-2.6267412455965573,-2.4481108722818936,-2.6264766009422065,-2.627111390484737,-2.6270738395540523,-2.6271787437413625,-2.627087548623985,-2.62724490490495,-2.626664355595631,-2.6267817767598363
49687.0,0.00018060209519888106,-0.8600158524532142,-2.626748398154783,-2.448116236700563,-2.6264819653608757,-2.6271137746708124,-2.627077415833165,-2.6271847042065506,-2.627090528856579,-2.627252057463176,-2.6266685279212627,-2.6267901214110996
49688.0,0.00019192697905623664,-0.8598722052421814,-2.626742437689595,-2.4481788215850377,-2.6264766009422065,-2.6271137746708124,-2.6270738395540523,-2.627182916066994,-2.6270887407170225,-2.627245500951469,-2.6266655476886687,-2.6267877372250243
49689.0,0.00019669535120670213,-0.8597386908219684,-2.6267501862943394,-2.448426776936862,-2.626483753500432,-2.627115562810369,-2.627077415833165,-2.6271888765321822,-2.6270923169961353,-2.6272538456027323,-2.626667931874744,-2.6267966779228065
49690.0,0.000193119072093853,-0.8595622610524012,-2.62674482187567,-2.4487546025222064,-2.626477793035244,-2.6271137746708124,-2.627077415833165,-2.6271847042065506,-2.6270917209496165,-2.6272532495562135,-2.626667931874744,-2.6267877372250243
49691.0,0.000183582327792922,-0.8594180177948496,-2.626754358619971,-2.4491092502008973,-2.6264825614073946,-2.6271197351360005,-2.627080992112278,-2.6271876844391446,-2.6270976814148046,-2.62725503769577,-2.6266721042003756,-2.62679488978325
49692.0,0.00018596651386815476,-0.8592570852347714,-2.6267466100152266,-2.449228459504659,-2.6264831574539134,-2.6271167549034065,-2.6270798000192404,-2.627184108160032,-2.6270917209496165,-2.6272538456027323,-2.626667931874744,-2.626791909550656
49693.0,0.0001889467464621957,-0.8590597938370459,-2.6267406495500385,-2.4491497813641763,-2.6264771969887253,-2.6271101983916996,-2.6270672830423454,-2.6271793397878813,-2.6270851644379096,-2.6272466930445066,-2.626661375363037,-2.626785353038949
49694.0,0.00019252302557504482,-0.8589215110446824,-2.6267412455965573,-2.449054413921167,-2.6264760048956877,-2.6271101983916996,-2.6270726474610147,-2.6271811279274377,-2.6270887407170225,-2.627242520718875,-2.626661375363037,-2.6267871411785055
49695.0,0.0001943111651314694,-0.8587623666241606,-2.6267442258291513,-2.4489775239202407,-2.6264771969887253,-2.6271137746708124,-2.6270732435075335,-2.627182916066994,-2.627090528856579,-2.627249077230582,-2.62666495164215,-2.626788333271543
49696.0,0.0001841783743117302,-0.8585930894128191,-2.626741841643076,-2.4487981139180794,-2.6264771969887253,-2.6271131786242936,-2.62707503164709,-2.627180531880919,-2.6270881446705037,-2.627249077230582,-2.6266655476886687,-2.6267847569924303
49697.0,0.00019907953728193488,-0.858413083364139,-2.6267442258291513,-2.448740893452274,-2.626478389081763,-2.6271131786242936,-2.6270756276936087,-2.627180531880919,-2.6270887407170225,-2.627251461416657,-2.6266631635025934,-2.626788929318062
49698.0,0.00019490721165027757,-0.8582378456876094,-2.6267460139687078,-2.4487331448475294,-2.626480773267838,-2.6271107944382184,-2.6270792039727215,-2.627183512113513,-2.62708993281006,-2.6272526535096947,-2.6266655476886687,-2.6267895253645808
49699.0,0.0001984834907631267,-0.8580381701038087,-2.626739457457001,-2.4487414894987927,-2.626475408849169,-2.6271072181591055,-2.627072051414496,-2.6271781476948437,-2.6270821842053156,-2.6272466930445066,-2.6266601832699994,-2.6267811807133175
49700.0,0.00019490721165027757,-0.8578617403342415,-2.6267466100152266,-2.4487474499639807,-2.626483753500432,-2.6271137746708124,-2.627078011879684,-2.627185896299588,-2.627090528856579,-2.627252057463176,-2.6266667397817063,-2.6267901214110996
49701.0,0.00019133093253742843,-0.8576870987042307,-2.626751378387377,-2.448777252289921,-2.626487925826064,-2.6271203311825193,-2.627084568391391,-2.6271906646717387,-2.627096489321767,-2.6272592100214016,-2.626673892339932,-2.626795485829769
49702.0,0.00020027163031955127,-0.857536894981491,-2.626748398154783,-2.4485889015899778,-2.626484349546951,-2.627118543042963,-2.6270815881587968,-2.6271888765321822,-2.6270952972287294,-2.6272592100214016,-2.6266721042003756,-2.626791909550656
49703.0,0.00019669535120670213,-0.8573843070726761,-2.6267501862943394,-2.4483439264707476,-2.6264795811748005,-2.627117946996444,-2.6270792039727215,-2.627187088392626,-2.6270917209496165,-2.6272538456027323,-2.626667335828225,-2.6267931016436936
49704.0,0.00019669535120670213,-0.8572209903265227,-2.626747802108264,-2.448243790655588,-2.6264855416399886,-2.6271197351360005,-2.6270792039727215,-2.6271853002530694,-2.6270947011822106,-2.6272532495562135,-2.626670316060819,-2.6267901214110996
49705.0,0.00019192697905623664,-0.8570338317196169,-2.626748994201302,-2.4480423269322307,-2.6264897139656203,-2.6271197351360005,-2.627080396065759,-2.6271882804856634,-2.6270952972287294,-2.627257421881845,-2.626667335828225,-2.62679488978325
49706.0,0.00019669535120670213,-0.8568734952060575,-2.62675495466649,-2.4479225215819502,-2.626490310012139,-2.6271227153685945,-2.6270815881587968,-2.6271906646717387,-2.6271006616473986,-2.62725503769577,-2.6266715081538567,-2.6267972739693253
49707.0,0.0001877546534245793,-0.8567358084602128,-2.6267442258291513,-2.4477943715804065,-2.626480773267838,-2.627117946996444,-2.6270726474610147,-2.627180531880919,-2.627093509089173,-2.627248481184063,-2.626664355595631,-2.626788333271543
49708.0,0.00019550325816908577,-0.8565790482257662,-2.6267436297826325,-2.447708540881698,-2.6264819653608757,-2.6271131786242936,-2.627078011879684,-2.627183512113513,-2.627086952577466,-2.6272502693236195,-2.6266661437351875,-2.626785949085468
49709.0,0.00018477442083053838,-0.8564377852008087,-2.6267412455965573,-2.447643571811148,-2.626478389081763,-2.627108410252143,-2.627074435600571,-2.6271817239739566,-2.6270857604844284,-2.6272466930445066,-2.6266655476886687,-2.626782968852874
49710.0,0.0001937151186126612,-0.8562977142688888,-2.62674482187567,-2.447581582973192,-2.626481369314357,-2.6271131786242936,-2.627074435600571,-2.627180531880919,-2.627087548623985,-2.6272478851375443,-2.626664355595631,-2.6267877372250243
49711.0,0.00019729139772551031,-0.8561677761277886,-2.6267430337361137,-2.4474057492501435,-2.626480773267838,-2.627112582577775,-2.627074435600571,-2.627183512113513,-2.62708993281006,-2.627249077230582,-2.62666495164215,-2.6267847569924303
49712.0,0.00019073488601862025,-0.856039030079726,-2.6267460139687078,-2.4472042855267864,-2.6264801772213193,-2.6271137746708124,-2.627071455367977,-2.6271823200204754,-2.6270917209496165,-2.6272508653701383,-2.626664355595631,-2.6267901214110996
49713.0,0.0001937151186126612,-0.8559317417063406,-2.6267507823408582,-2.4470636185483476,-2.626484349546951,-2.627111986531256,-2.627080992112278,-2.627187088392626,-2.627090528856579,-2.6272556337422888,-2.6266661437351875,-2.6267942937367312
49714.0,0.00019669535120670213,-0.8558304137981432,-2.6267406495500385,-2.4469992455243164,-2.6264801772213193,-2.6271101983916996,-2.6270756276936087,-2.6271882804856634,-2.627087548623985,-2.627251461416657,-2.626667335828225,-2.6267847569924303
49715.0,0.00019490721165027757,-0.8557261056573517,-2.6267466100152266,-2.446993881105647,-2.626484349546951,-2.6271173509499253,-2.6270786079262027,-2.627186492346107,-2.627092913042654,-2.6272502693236195,-2.6266667397817063,-2.6267901214110996
49716.0,0.0001984834907631267,-0.855625969842192,-2.626745417922189,-2.44702249133855,-2.6264819653608757,-2.6271167549034065,-2.6270798000192404,-2.627186492346107,-2.6270941051356917,-2.627252057463176,-2.6266655476886687,-2.626788929318062
49717.0,0.00019550325816908577,-0.8555347747248143,-2.626742437689595,-2.44713752831668,-2.62647481280265,-2.6271131786242936,-2.6270768197866463,-2.627180531880919,-2.627090528856579,-2.6272472890910255,-2.6266655476886687,-2.626788333271543
49718.0,0.00019550325816908577,-0.8554161614675714,-2.626742437689595,-2.447282963667269,-2.6264795811748005,-2.6271137746708124,-2.62707503164709,-2.627182916066994,-2.6270887407170225,-2.6272466930445066,-2.6266625674560746,-2.6267847569924303
49719.0,0.00019192697905623664,-0.855268341930907,-2.626739457457001,-2.447214418317606,-2.626475408849169,-2.627111986531256,-2.6270738395540523,-2.6271787437413625,-2.6270881446705037,-2.6272437128119126,-2.626661375363037,-2.6267841609459115
49720.0,0.0001877546534245793,-0.8551205223942425,-2.626742437689595,-2.4470707711065733,-2.626478389081763,-2.6271131786242936,-2.6270708593214582,-2.6271793397878813,-2.627086952577466,-2.6272466930445066,-2.6266595872234806,-2.626785949085468
49721.0,0.0001937151186126612,-0.8549297875082239,-2.6267406495500385,-2.446906858313901,-2.6264801772213193,-2.6271137746708124,-2.6270732435075335,-2.6271787437413625,-2.6270917209496165,-2.6272443088584314,-2.626661971409556,-2.626785353038949
49722.0,0.0001984834907631267,-0.8547652786690328,-2.626745417922189,-2.446655326682964,-2.626481369314357,-2.627111986531256,-2.6270726474610147,-2.627185896299588,-2.6270881446705037,-2.6272496732771007,-2.6266661437351875,-2.6267877372250243
49723.0,0.00019788744424431852,-0.8546091144811051,-2.626732304898775,-2.4464514787735316,-2.6264694483839808,-2.6271042379265115,-2.6270643028097513,-2.627173975369212,-2.627077415833165,-2.627239540486281,-2.6266530307117737,-2.626775816294648
49724.0,0.0001984834907631267,-0.8544440095953952,-2.626739457457001,-2.446157627839759,-2.6264742167561312,-2.6271078142056243,-2.627068475135383,-2.6271793397878813,-2.627083376298353,-2.627245500951469,-2.626658395130443,-2.6267805846667986
49725.0,0.00019550325816908577,-0.8542687719188656,-2.626736477224407,-2.445869737371175,-2.626475408849169,-2.6271072181591055,-2.627068475135383,-2.627174571415731,-2.6270821842053156,-2.627243116765394,-2.626657799083924,-2.626779392573761
49726.0,0.0001943111651314694,-0.8541155879635319,-2.626739457457001,-2.445533567134567,-2.6264730246630936,-2.6271066221125867,-2.6270672830423454,-2.6271763595552873,-2.6270851644379096,-2.6272401365327998,-2.6266566069908865,-2.626782968852874
49727.0,0.000183582327792922,-0.8539796893572437,-2.6267346890848504,-2.4453458124811425,-2.626471832570056,-2.6271048339730303,-2.6270672830423454,-2.627177551648325,-2.6270815881587968,-2.627236560253687,-2.6266560109443677,-2.62677998862028
49728.0,0.0001984834907631267,-0.8538133923784962,-2.6267281325731435,-2.4454048210865045,-2.626465276058349,-2.627098873507842,-2.627058938391082,-2.6271692069970616,-2.6270762237401275,-2.6272353681606493,-2.6266500504791797,-2.626770451875979
49729.0,0.00019133093253742843,-0.8536506716788616,-2.626738861410482,-2.4455359513206423,-2.626471832570056,-2.6271078142056243,-2.6270672830423454,-2.6271757635087685,-2.6270821842053156,-2.6272377523467245,-2.6266566069908865,-2.6267817767598363
49730.0,0.00019252302557504482,-0.8534873549327081,-2.6267382653639633,-2.4454417759706706,-2.6264742167561312,-2.627109006298662,-2.6270696672284206,-2.627174571415731,-2.627083376298353,-2.627242520718875,-2.626661375363037,-2.6267811807133175
49731.0,0.00018477442083053838,-0.8533794705128038,-2.626742437689595,-2.445341044108992,-2.6264801772213193,-2.6271101983916996,-2.62707503164709,-2.6271853002530694,-2.627086952577466,-2.627249077230582,-2.6266661437351875,-2.626788333271543
49732.0,0.00020027163031955127,-0.853263837488155,-2.626738861410482,-2.4453738266675265,-2.626475408849169,-2.6271066221125867,-2.627068475135383,-2.6271781476948437,-2.6270863565309472,-2.62724490490495,-2.6266601832699994,-2.6267835648993927
49733.0,0.00019252302557504482,-0.853114825858453,-2.626742437689595,-2.4453577334115186,-2.6264760048956877,-2.6271131786242936,-2.6270696672284206,-2.6271787437413625,-2.6270893367635413,-2.627246096997988,-2.6266595872234806,-2.6267871411785055
49734.0,0.0001877546534245793,-0.8529497209727431,-2.626733496991813,-2.4453362757368415,-2.6264706404770184,-2.6271042379265115,-2.627065494902789,-2.627170399090099,-2.6270792039727215,-2.6272383483932433,-2.6266542228048113,-2.6267776044342046
49735.0,0.00018596651386815476,-0.8528114381803796,-2.6267370732709256,-2.445281439457111,-2.6264736207096124,-2.627108410252143,-2.627067879088864,-2.6271799358344,-2.6270863565309472,-2.6272472890910255,-2.626657799083924,-2.6267835648993927
49736.0,0.00019550325816908577,-0.8526570621320083,-2.626748398154783,-2.4451258713157022,-2.626480773267838,-2.627112582577775,-2.627077415833165,-2.627187088392626,-2.627087548623985,-2.627248481184063,-2.6266637595491122,-2.6267907174576184
49737.0,0.0001943111651314694,-0.8525104346883815,-2.626738861410482,-2.4450132185236475,-2.626471832570056,-2.627109006298662,-2.627069071181902,-2.6271799358344,-2.627084568391391,-2.6272437128119126,-2.6266601832699994,-2.62677998862028
49738.0,0.0001877546534245793,-0.8523638072447547,-2.6267442258291513,-2.4448522859635693,-2.6264795811748005,-2.627117946996444,-2.6270738395540523,-2.6271847042065506,-2.6270893367635413,-2.6272496732771007,-2.6266625674560746,-2.6267871411785055
49739.0,0.00018715860690577112,-0.8522124114289774,-2.6267412455965573,-2.4447116189851306,-2.62647481280265,-2.627109006298662,-2.6270738395540523,-2.6271811279274377,-2.627087548623985,-2.627248481184063,-2.62666495164215,-2.626785353038949
49740.0,0.00019133093253742843,-0.8520663800318694,-2.6267436297826325,-2.4444499545633738,-2.6264789851282817,-2.62711496676385,-2.62707503164709,-2.627184108160032,-2.62708993281006,-2.6272508653701383,-2.626664355595631,-2.6267907174576184
49741.0,0.0001883506999433875,-0.8519412102629197,-2.626745417922189,-2.4442771010729194,-2.6264801772213193,-2.627111986531256,-2.6270756276936087,-2.6271817239739566,-2.627086952577466,-2.627248481184063,-2.6266685279212627,-2.626788333271543
49742.0,0.00019729139772551031,-0.8518118681683383,-2.6267340930383316,-2.4441733889786468,-2.6264742167561312,-2.6271096023451808,-2.6270660909493078,-2.6271751674622497,-2.6270863565309472,-2.6272401365327998,-2.6266560109443677,-2.626779392573761
49743.0,0.0001841783743117302,-0.8516872944459074,-2.6267317088522564,-2.4439963631625607,-2.6264664681513867,-2.62710006560088,-2.6270583423445633,-2.627170995136618,-2.627072051414496,-2.627232983974574,-2.6266482623396232,-2.6267752202481294
49744.0,0.00018596651386815476,-0.8515698732817022,-2.6267400535035197,-2.443693571531006,-2.6264736207096124,-2.6271101983916996,-2.627069071181902,-2.6271781476948437,-2.6270857604844284,-2.627243116765394,-2.6266601832699994,-2.6267835648993927
49745.0,0.00019788744424431852,-0.8514566244431286,-2.626745417922189,-2.4434563450165205,-2.6264801772213193,-2.6271101983916996,-2.627074435600571,-2.6271817239739566,-2.6270863565309472,-2.6272502693236195,-2.6266667397817063,-2.6267907174576184
49746.0,0.00019490721165027757,-0.8513439716510739,-2.6267412455965573,-2.443199448966914,-2.6264760048956877,-2.6271101983916996,-2.627072051414496,-2.6271781476948437,-2.627084568391391,-2.6272466930445066,-2.6266595872234806,-2.6267835648993927
49747.0,0.00019252302557504482,-0.8512384714172448,-2.6267352851313692,-2.443093948733085,-2.6264700444304996,-2.6271006616473986,-2.627062514670195,-2.627170995136618,-2.627080992112278,-2.6272377523467245,-2.6266542228048113,-2.6267776044342046
49748.0,0.00019013883949981208,-0.8510966123457685,-2.626738861410482,-2.442929439893894,-2.626468852337462,-2.627106026066068,-2.627069071181902,-2.627174571415731,-2.627083972344872,-2.627235964207168,-2.626657799083924,-2.6267835648993927
49749.0,0.0001937151186126612,-0.8509535611812545,-2.6267412455965573,-2.4427756598920416,-2.626472428616575,-2.6271107944382184,-2.6270696672284206,-2.6271763595552873,-2.627084568391391,-2.627243116765394,-2.626657799083924,-2.626785353038949
49750.0,0.00018954279298100387,-0.8508373321100869,-2.6267412455965573,-2.442557506866158,-2.62647481280265,-2.627109006298662,-2.6270708593214582,-2.627177551648325,-2.627083972344872,-2.627239540486281,-2.626657799083924,-2.626782968852874
49751.0,0.00018537046734934656,-0.8507038176898739,-2.6267382653639633,-2.4424192240737943,-2.6264700444304996,-2.6271048339730303,-2.6270666869958266,-2.6271733793226932,-2.6270798000192404,-2.6272383483932433,-2.626658395130443,-2.62677998862028
49752.0,0.000193119072093853,-0.8505625546649164,-2.6267460139687078,-2.4424162438412003,-2.626480773267838,-2.6271131786242936,-2.6270726474610147,-2.627184108160032,-2.627087548623985,-2.627249077230582,-2.626661971409556,-2.6267895253645808
49753.0,0.00018477442083053838,-0.8504159272212896,-2.6267472060617454,-2.4423727324453273,-2.6264766009422065,-2.6271143707173312,-2.627078011879684,-2.6271817239739566,-2.62708993281006,-2.6272472890910255,-2.6266661437351875,-2.6267901214110996
49754.0,0.00019192697905623664,-0.8502758562893696,-2.6267531665269335,-2.442212395931768,-2.6264920981516955,-2.6271256956011886,-2.6270821842053156,-2.627193048857814,-2.6271018537404363,-2.627258017928364,-2.626673296293413,-2.6267960818762877
49755.0,0.00019073488601862025,-0.8500898897755015,-2.626748994201302,-2.442128353372616,-2.62648494559347,-2.627118543042963,-2.6270815881587968,-2.6271888765321822,-2.627092913042654,-2.62725503769577,-2.6266715081538567,-2.6267931016436936
49756.0,0.00018656256038696294,-0.8499367058201678,-2.6267555507130087,-2.4421760370941206,-2.626490906058658,-2.6271221193220757,-2.6270827802518344,-2.6271942409508515,-2.62710006560088,-2.627257421881845,-2.626673296293413,-2.626798466062363
49757.0,0.00018954279298100387,-0.8498323976793764,-2.626751378387377,-2.44209139848845,-2.6264885218725826,-2.627118543042963,-2.627080396065759,-2.6271906646717387,-2.627095893275248,-2.6272538456027323,-2.626670912107338,-2.6267960818762877
49758.0,0.00020086767683835945,-0.8496804058170803,-2.626742437689595,-2.4420180847666364,-2.6264771969887253,-2.627111986531256,-2.6270768197866463,-2.6271799358344,-2.6270863565309472,-2.627241924672356,-2.626661971409556,-2.626785949085468
49759.0,0.00019133093253742843,-0.8494938432566933,-2.6267472060617454,-2.4419495394169735,-2.6264825614073946,-2.6271161588568877,-2.627078011879684,-2.6271853002530694,-2.627092913042654,-2.6272532495562135,-2.6266697200143003,-2.626792505597175
49760.0,0.0001877546534245793,-0.849311453021938,-2.626748398154783,-2.441827349880618,-2.626481369314357,-2.62711496676385,-2.6270786079262027,-2.627184108160032,-2.6270911249030977,-2.6272538456027323,-2.6266697200143003,-2.6267942937367312
49761.0,0.00020027163031955127,-0.8491862832529883,-2.6267507823408582,-2.4418041040663843,-2.626486733733026,-2.6271197351360005,-2.6270815881587968,-2.6271906646717387,-2.627095893275248,-2.627257421881845,-2.6266715081538567,-2.6267942937367312
49762.0,0.00018537046734934656,-0.8490932999960542,-2.6267442258291513,-2.4419090082536945,-2.626483753500432,-2.6271191390894817,-2.6270732435075335,-2.627180531880919,-2.627092913042654,-2.6272508653701383,-2.626664355595631,-2.626785353038949
49763.0,0.0001889467464621957,-0.8489872037157064,-2.6267430337361137,-2.4420705368602915,-2.626481369314357,-2.62711496676385,-2.6270756276936087,-2.6271882804856634,-2.6270917209496165,-2.6272502693236195,-2.626667931874744,-2.6267895253645808
49764.0,0.00018477442083053838,-0.8488739548771328,-2.6267495902478206,-2.4422481587228964,-2.6264825614073946,-2.627118543042963,-2.6270786079262027,-2.627186492346107,-2.627090528856579,-2.6272526535096947,-2.6266691239677815,-2.626791909550656
49765.0,0.00018477442083053838,-0.8487773953410859,-2.6267495902478206,-2.4423810770965906,-2.626484349546951,-2.6271161588568877,-2.6270786079262027,-2.627183512113513,-2.62708993281006,-2.6272508653701383,-2.626667931874744,-2.6267901214110996
49766.0,0.0001984834907631267,-0.8486862002237082,-2.626751378387377,-2.4424716761674494,-2.6264855416399886,-2.627118543042963,-2.6270827802518344,-2.627184108160032,-2.6270941051356917,-2.6272538456027323,-2.626667931874744,-2.62679488978325
49767.0,0.00019192697905623664,-0.8486057339436691,-2.6267460139687078,-2.442581944773429,-2.6264831574539134,-2.6271227153685945,-2.6270792039727215,-2.6271882804856634,-2.6270976814148046,-2.62725503769577,-2.6266691239677815,-2.6267901214110996
49768.0,0.00019192697905623664,-0.8485318241753369,-2.626748398154783,-2.4426242640762643,-2.6264831574539134,-2.6271167549034065,-2.6270798000192404,-2.6271853002530694,-2.6270941051356917,-2.6272502693236195,-2.6266691239677815,-2.626792505597175
49769.0,0.00019550325816908577,-0.8484126148715753,-2.6267537625734523,-2.442702346170228,-2.626486733733026,-2.627121523275557,-2.627078011879684,-2.627187088392626,-2.6270952972287294,-2.62725503769577,-2.626667335828225,-2.6267972739693253
49770.0,0.000193119072093853,-0.8483142671959719,-2.6267531665269335,-2.442684464774664,-2.626487925826064,-2.6271203311825193,-2.627083376298353,-2.627189472578701,-2.6270976814148046,-2.6272538456027323,-2.6266727002468944,-2.6267960818762877
49771.0,0.000193119072093853,-0.8482004223108796,-2.6267442258291513,-2.442658834774355,-2.6264789851282817,-2.6271137746708124,-2.6270756276936087,-2.6271817239739566,-2.6270917209496165,-2.6272466930445066,-2.6266625674560746,-2.626788333271543
49772.0,0.00019490721165027757,-0.848056179053328,-2.6267442258291513,-2.4426230719832267,-2.6264825614073946,-2.6271161588568877,-2.627074435600571,-2.627183512113513,-2.627092913042654,-2.627251461416657,-2.62666495164215,-2.6267877372250243
49773.0,0.0001889467464621957,-0.8479155120748892,-2.62674482187567,-2.442510419191172,-2.6264801772213193,-2.6271143707173312,-2.6270762237401275,-2.6271853002530694,-2.62708993281006,-2.6272538456027323,-2.626667931874744,-2.626788929318062
49774.0,0.00019192697905623664,-0.8478094157945414,-2.6267442258291513,-2.4423196843051533,-2.626483753500432,-2.627117946996444,-2.6270786079262027,-2.627189472578701,-2.6270911249030977,-2.6272532495562135,-2.6266655476886687,-2.6267865451319867
49775.0,0.00019133093253742843,-0.8477057037002688,-2.6267382653639633,-2.442087822209337,-2.6264771969887253,-2.6271131786242936,-2.627069071181902,-2.6271763595552873,-2.627087548623985,-2.6272443088584314,-2.626657799083924,-2.626782968852874
49776.0,0.00019133093253742843,-0.8476121243968158,-2.6267466100152266,-2.441904239881544,-2.6264771969887253,-2.6271143707173312,-2.6270756276936087,-2.6271799358344,-2.6270893367635413,-2.6272496732771007,-2.626661375363037,-2.6267901214110996
49777.0,0.00019013883949981208,-0.8474947032326106,-2.6267466100152266,-2.441838674764475,-2.6264771969887253,-2.6271143707173312,-2.6270756276936087,-2.6271823200204754,-2.62708993281006,-2.627248481184063,-2.626664355595631,-2.6267895253645808
49778.0,0.00018537046734934656,-0.8473653611380292,-2.626745417922189,-2.4416884710417355,-2.626478389081763,-2.6271143707173312,-2.6270732435075335,-2.6271823200204754,-2.62708993281006,-2.627245500951469,-2.626664355595631,-2.626788333271543
49779.0,0.0001937151186126612,-0.8472240981130716,-2.6267412455965573,-2.4414738942949645,-2.6264766009422065,-2.627112582577775,-2.6270738395540523,-2.6271817239739566,-2.627087548623985,-2.627249077230582,-2.626660779316518,-2.6267847569924303
49780.0,0.00019788744424431852,-0.8470786627624824,-2.6267376693174445,-2.441314153827924,-2.626475408849169,-2.627106026066068,-2.627069071181902,-2.627176955601806,-2.627080992112278,-2.627243116765394,-2.626658395130443,-2.626782372806355
49781.0,0.00019490721165027757,-0.8469856795055484,-2.6267430337361137,-2.441140108244432,-2.626478389081763,-2.62711496676385,-2.6270726474610147,-2.6271823200204754,-2.62708993281006,-2.6272496732771007,-2.6266631635025934,-2.6267865451319867
49782.0,0.000193119072093853,-0.8469242867141111,-2.6267430337361137,-2.4410977889415966,-2.6264825614073946,-2.627118543042963,-2.627078011879684,-2.627185896299588,-2.627092913042654,-2.6272508653701383,-2.6266655476886687,-2.6267877372250243
49783.0,0.00019073488601862025,-0.8468241508989514,-2.626754358619971,-2.4409368563815184,-2.626484349546951,-2.627121523275557,-2.6270798000192404,-2.6271912607182575,-2.627096489321767,-2.6272508653701383,-2.6266715081538567,-2.626795485829769
49784.0,0.00019550325816908577,-0.8467109020603778,-2.6267495902478206,-2.4409738112656845,-2.626486733733026,-2.627118543042963,-2.6270821842053156,-2.627189472578701,-2.627096489321767,-2.627252057463176,-2.6266727002468944,-2.6267960818762877
49785.0,0.00018954279298100387,-0.8465809639192776,-2.6267531665269335,-2.441183619640305,-2.6264915021051767,-2.6271233114151133,-2.6270893367635413,-2.6271936449043327,-2.62710006560088,-2.6272598060679204,-2.6266750844329696,-2.626798466062363
49786.0,0.0001943111651314694,-0.8464712913598169,-2.626751378387377,-2.441190176152012,-2.626487329779545,-2.627120927229038,-2.627080396065759,-2.62719006862522,-2.6270976814148046,-2.627258017928364,-2.6266727002468944,-2.6267960818762877
49787.0,0.0001889467464621957,-0.8463741357772512,-2.626751974433896,-2.441084079871664,-2.6264861376865074,-2.6271227153685945,-2.6270821842053156,-2.627189472578701,-2.627098873507842,-2.627258017928364,-2.626673892339932,-2.6267966779228065
49788.0,0.0001943111651314694,-0.8462942655437309,-2.6267495902478206,-2.4410042096381437,-2.626486733733026,-2.6271191390894817,-2.627080992112278,-2.6271853002530694,-2.627093509089173,-2.627252057463176,-2.626667335828225,-2.62679488978325
49789.0,0.0001996755838007431,-0.8461786325190821,-2.6267501862943394,-2.4409642745213835,-2.6264855416399886,-2.6271173509499253,-2.627080992112278,-2.6271888765321822,-2.627093509089173,-2.6272508653701383,-2.6266697200143003,-2.626791313504137
49790.0,0.00019729139772551031,-0.8460540587966512,-2.6267507823408582,-2.440794401263523,-2.626484349546951,-2.6271203311825193,-2.6270798000192404,-2.6271882804856634,-2.6270941051356917,-2.6272538456027323,-2.6266685279212627,-2.6267936976902124
49791.0,0.00019669535120670213,-0.8459181601903629,-2.626751974433896,-2.440531544748729,-2.626487925826064,-2.627120927229038,-2.6270815881587968,-2.6271918567647763,-2.6270982774613234,-2.6272526535096947,-2.626676276526007,-2.62679488978325
49792.0,0.00019729139772551031,-0.8458233887938724,-2.6267507823408582,-2.440319948234552,-2.62648494559347,-2.627124503508151,-2.6270815881587968,-2.6271882804856634,-2.6271012576939174,-2.627258613974883,-2.6266715081538567,-2.6267942937367312
49793.0,0.00019013883949981208,-0.8457196766995998,-2.6267501862943394,-2.440126829162458,-2.6264855416399886,-2.6271173509499253,-2.6270768197866463,-2.627187088392626,-2.627095893275248,-2.62725503769577,-2.6266697200143003,-2.6267936976902124
49794.0,0.00018060209519888106,-0.8456225211170341,-2.626745417922189,-2.4399259614856197,-2.626483753500432,-2.6271143707173312,-2.6270762237401275,-2.6271793397878813,-2.6270917209496165,-2.627252057463176,-2.6266691239677815,-2.6267895253645808
49795.0,0.0001877546534245793,-0.8454949671620091,-2.626748994201302,-2.439756684274278,-2.6264819653608757,-2.6271191390894817,-2.6270768197866463,-2.627183512113513,-2.627096489321767,-2.627252057463176,-2.6266691239677815,-2.6267931016436936
49796.0,0.00018656256038696294,-0.8454067522772255,-2.62674482187567,-2.439613633109764,-2.6264831574539134,-2.6271197351360005,-2.627080396065759,-2.6271847042065506,-2.627097085368286,-2.6272538456027323,-2.6266691239677815,-2.6267901214110996
49797.0,0.00018656256038696294,-0.8453614527417961,-2.6267507823408582,-2.439328126827255,-2.626483753500432,-2.627117946996444,-2.6270798000192404,-2.6271882804856634,-2.6270917209496165,-2.627252057463176,-2.626667931874744,-2.6267942937367312
49798.0,0.00019729139772551031,-0.8452923113456143,-2.6267525704804147,-2.4389102982175705,-2.6264855416399886,-2.6271191390894817,-2.627080992112278,-2.6271918567647763,-2.6270947011822106,-2.62725503769577,-2.6266721042003756,-2.6267960818762877
49799.0,0.0001996755838007431,-0.8452297264611395,-2.626757338852565,-2.438623003795505,-2.626493886291252,-2.6271233114151133,-2.627087548623985,-2.6271966251369268,-2.6270976814148046,-2.627257421881845,-2.626676872572526,-2.6268002542019193
49800.0,0.00019192697905623664,-0.8451486641345816,-2.626757338852565,-2.4384972379800365,-2.626493886291252,-2.627130463973339,-2.6270881446705037,-2.627199605369521,-2.627105430019549,-2.627263978393552,-2.626680448851639,-2.6268020423414757
49801.0,0.00019192697905623664,-0.8450681978545425,-2.6267501862943394,-2.4383112714661683,-2.626480773267838,-2.6271173509499253,-2.6270821842053156,-2.627187088392626,-2.627095893275248,-2.6272556337422888,-2.6266655476886687,-2.62679488978325
49802.0,0.00019133093253742843,-0.8449907118070974,-2.6267507823408582,-2.438128285184894,-2.6264825614073946,-2.627120927229038,-2.627077415833165,-2.627189472578701,-2.627095893275248,-2.627254441649251,-2.626674488386451,-2.6267931016436936
49803.0,0.0001937151186126612,-0.8448911720384564,-2.6267507823408582,-2.4378350302976406,-2.626486733733026,-2.627120927229038,-2.627080396065759,-2.627189472578701,-2.6270982774613234,-2.62725503769577,-2.626673892339932,-2.626795485829769
49804.0,0.00018715860690577112,-0.8447719627346948,-2.626745417922189,-2.437572769829365,-2.6264789851282817,-2.627115562810369,-2.627078011879684,-2.627183512113513,-2.6270941051356917,-2.627248481184063,-2.6266655476886687,-2.626788929318062
49805.0,0.00018715860690577112,-0.844671826919535,-2.6267507823408582,-2.43720024075511,-2.62648494559347,-2.6271203311825193,-2.627080992112278,-2.6271912607182575,-2.6270982774613234,-2.6272556337422888,-2.6266727002468944,-2.6267936976902124
49806.0,0.00019252302557504482,-0.8445883804069019,-2.6267460139687078,-2.4367067142375367,-2.62648494559347,-2.6271161588568877,-2.6270798000192404,-2.627185896299588,-2.6270911249030977,-2.6272532495562135,-2.6266691239677815,-2.626788929318062
49807.0,0.0001937151186126612,-0.8445061259873063,-2.626748994201302,-2.436209015394332,-2.626483753500432,-2.6271173509499253,-2.627078011879684,-2.627186492346107,-2.6270952972287294,-2.627252057463176,-2.6266691239677815,-2.626791909550656
49808.0,0.00019669535120670213,-0.8444405608702374,-2.6267472060617454,-2.4359401984143494,-2.6264819653608757,-2.627117946996444,-2.6270792039727215,-2.627184108160032,-2.6270923169961353,-2.6272508653701383,-2.626667335828225,-2.626792505597175
49809.0,0.00019252302557504482,-0.8443583064506419,-2.6267495902478206,-2.4357059521324578,-2.6264831574539134,-2.6271203311825193,-2.627080992112278,-2.6271876844391446,-2.627095893275248,-2.627252057463176,-2.6266661437351875,-2.6267936976902124
49810.0,0.00018954279298100387,-0.8442832045892721,-2.6267442258291513,-2.435550383991049,-2.6264766009422065,-2.6271131786242936,-2.627071455367977,-2.6271787437413625,-2.6270887407170225,-2.6272466930445066,-2.6266655476886687,-2.6267877372250243
49811.0,0.0001984834907631267,-0.844193201564932,-2.6267376693174445,-2.435531906548966,-2.6264730246630936,-2.6271078142056243,-2.627067879088864,-2.6271721872296556,-2.627084568391391,-2.627236560253687,-2.6266589911769618,-2.62677998862028
49812.0,0.00018656256038696294,-0.8441300206339384,-2.626736477224407,-2.4356141609685613,-2.626471236523537,-2.6271072181591055,-2.627068475135383,-2.627173975369212,-2.6270851644379096,-2.6272401365327998,-2.6266572030374054,-2.626782372806355
49813.0,0.000193119072093853,-0.8440233283070717,-2.626741841643076,-2.435720853295428,-2.626478389081763,-2.627108410252143,-2.627069071181902,-2.6271793397878813,-2.627086952577466,-2.6272437128119126,-2.6266595872234806,-2.626785353038949
49814.0,0.00019550325816908577,-0.8439154438871674,-2.6267412455965573,-2.4356815142251866,-2.6264771969887253,-2.627109006298662,-2.6270732435075335,-2.627173975369212,-2.6270863565309472,-2.627246096997988,-2.6266601832699994,-2.6267847569924303
49815.0,0.0001883506999433875,-0.843823652723271,-2.6267376693174445,-2.4356421751549453,-2.626472428616575,-2.6271078142056243,-2.6270672830423454,-2.627176955601806,-2.627083376298353,-2.6272401365327998,-2.6266589911769618,-2.6267841609459115
49816.0,0.0001943111651314694,-0.8437461666758259,-2.6267406495500385,-2.4356171412011554,-2.6264766009422065,-2.6271096023451808,-2.6270732435075335,-2.627182916066994,-2.627086952577466,-2.627248481184063,-2.62666495164215,-2.626785353038949
49817.0,0.00019907953728193488,-0.8436507992328166,-2.6267442258291513,-2.43553488678156,-2.6264825614073946,-2.627115562810369,-2.627077415833165,-2.627184108160032,-2.627090528856579,-2.6272502693236195,-2.6266655476886687,-2.6267865451319867
49818.0,0.0002038479094324004,-0.843550067371138,-2.6267436297826325,-2.4353745502680004,-2.6264801772213193,-2.6271143707173312,-2.6270732435075335,-2.627183512113513,-2.6270863565309472,-2.627245500951469,-2.6266637595491122,-2.6267877372250243
49819.0,0.0001937151186126612,-0.8434237055091507,-2.6267436297826325,-2.4352005046845084,-2.6264795811748005,-2.627112582577775,-2.627072051414496,-2.627180531880919,-2.6270893367635413,-2.627249077230582,-2.6266637595491122,-2.6267865451319867
49820.0,0.00019252302557504482,-0.8433354906243671,-2.6267495902478206,-2.435136727706996,-2.6264831574539134,-2.627121523275557,-2.627080396065759,-2.627184108160032,-2.627096489321767,-2.627252057463176,-2.6266691239677815,-2.626791313504137
49821.0,0.00019252302557504482,-0.8432788662050803,-2.6267436297826325,-2.4350175184032343,-2.6264801772213193,-2.6271173509499253,-2.6270768197866463,-2.6271823200204754,-2.627093509089173,-2.627252057463176,-2.6266625674560746,-2.626785353038949
49822.0,0.00019192697905623664,-0.8432186655066807,-2.6267436297826325,-2.434857181889675,-2.626478389081763,-2.6271096023451808,-2.627071455367977,-2.6271817239739566,-2.6270881446705037,-2.62724490490495,-2.626660779316518,-2.626785353038949
49823.0,0.00019073488601862025,-0.8431298545753783,-2.62674482187567,-2.434862546308344,-2.6264795811748005,-2.6271096023451808,-2.6270768197866463,-2.627180531880919,-2.6270863565309472,-2.62724490490495,-2.626661971409556,-2.6267907174576184
49824.0,0.00019550325816908577,-0.8430350831788878,-2.626742437689595,-2.43484466491278,-2.626478389081763,-2.6271107944382184,-2.6270732435075335,-2.6271817239739566,-2.6270893367635413,-2.627249077230582,-2.6266637595491122,-2.626785949085468
49825.0,0.00019490721165027757,-0.8429373315498032,-2.6267442258291513,-2.434875659331758,-2.6264771969887253,-2.627111390484737,-2.627078011879684,-2.627182916066994,-2.6270863565309472,-2.627246096997988,-2.626664355595631,-2.6267847569924303
49826.0,0.0001877546534245793,-0.8428681901536215,-2.626741841643076,-2.43481963095899,-2.626478389081763,-2.6271107944382184,-2.627072051414496,-2.6271787437413625,-2.6270857604844284,-2.6272466930445066,-2.6266625674560746,-2.6267865451319867
49827.0,0.000193119072093853,-0.8427960685248457,-2.6267442258291513,-2.4347147267716798,-2.6264771969887253,-2.62711496676385,-2.627069071181902,-2.6271799358344,-2.627086952577466,-2.627241924672356,-2.626658395130443,-2.6267835648993927
49828.0,0.00019133093253742843,-0.8427430203846717,-2.6267436297826325,-2.434685520492258,-2.6264736207096124,-2.627112582577775,-2.6270732435075335,-2.6271781476948437,-2.6270857604844284,-2.6272437128119126,-2.6266601832699994,-2.6267841609459115
49829.0,0.0001889467464621957,-0.8426786473606405,-2.626738861410482,-2.4346819442131453,-2.626475408849169,-2.6271066221125867,-2.627069071181902,-2.6271781476948437,-2.6270857604844284,-2.627243116765394,-2.626658395130443,-2.626782968852874
49830.0,0.00018239023475530563,-0.8425892403828192,-2.6267412455965573,-2.4345973056074746,-2.626478389081763,-2.6271137746708124,-2.6270756276936087,-2.6271811279274377,-2.627090528856579,-2.6272496732771007,-2.62666495164215,-2.6267847569924303
49831.0,0.00019550325816908577,-0.8425040057306297,-2.6267430337361137,-2.4345067065366157,-2.626480773267838,-2.6271107944382184,-2.6270702632749394,-2.6271793397878813,-2.627086952577466,-2.627246096997988,-2.626661971409556,-2.626785949085468
49832.0,0.0001937151186126612,-0.8424503615439369,-2.6267436297826325,-2.4344071667679748,-2.626477793035244,-2.627115562810369,-2.627074435600571,-2.6271853002530694,-2.6270941051356917,-2.6272466930445066,-2.626664355595631,-2.626785949085468
49833.0,0.00018954279298100387,-0.8423710873569354,-2.6267442258291513,-2.434341005604387,-2.626478389081763,-2.627111986531256,-2.6270708593214582,-2.6271781476948437,-2.6270881446705037,-2.6272496732771007,-2.626664355595631,-2.6267877372250243
49834.0,0.00019788744424431852,-0.8422643950300688,-2.62674482187567,-2.4344018023493055,-2.626480773267838,-2.6271137746708124,-2.6270768197866463,-2.6271793397878813,-2.627092913042654,-2.6272502693236195,-2.6266661437351875,-2.6267901214110996
49835.0,0.00020086767683835945,-0.8421654513079466,-2.626741841643076,-2.434350542348688,-2.6264771969887253,-2.6271131786242936,-2.6270726474610147,-2.6271781476948437,-2.6270887407170225,-2.6272466930445066,-2.626661375363037,-2.6267871411785055
49836.0,0.0001937151186126612,-0.8420986940978401,-2.6267442258291513,-2.4343457739765375,-2.626481369314357,-2.627117946996444,-2.627074435600571,-2.627182916066994,-2.627093509089173,-2.6272508653701383,-2.626664355595631,-2.626788333271543
49837.0,0.00018954279298100387,-0.8419765045614844,-2.6267400535035197,-2.434245042114859,-2.62647481280265,-2.6271078142056243,-2.627072051414496,-2.627177551648325,-2.627083972344872,-2.627242520718875,-2.6266560109443677,-2.626782372806355
49838.0,0.0001889467464621957,-0.8418298771178576,-2.6267442258291513,-2.4341306011832478,-2.6264766009422065,-2.6271137746708124,-2.6270738395540523,-2.6271793397878813,-2.6270881446705037,-2.62724490490495,-2.626661375363037,-2.6267847569924303
49839.0,0.00019669535120670213,-0.8417374899074423,-2.626745417922189,-2.4340841095547807,-2.626477793035244,-2.627112582577775,-2.62707503164709,-2.6271823200204754,-2.6270917209496165,-2.6272466930445066,-2.6266625674560746,-2.626788333271543
49840.0,0.00019490721165027757,-0.8416832496742308,-2.626739457457001,-2.434020928623787,-2.6264742167561312,-2.627111390484737,-2.6270660909493078,-2.627177551648325,-2.627087548623985,-2.6272413286258374,-2.6266595872234806,-2.626785353038949
49841.0,0.00019133093253742843,-0.8415938426964096,-2.626736477224407,-2.4337682048998124,-2.626472428616575,-2.6271096023451808,-2.6270702632749394,-2.6271763595552873,-2.6270881446705037,-2.6272437128119126,-2.626661971409556,-2.6267841609459115
49842.0,0.0001877546534245793,-0.8415217210676338,-2.6267460139687078,-2.433579854199869,-2.626478389081763,-2.6271161588568877,-2.6270768197866463,-2.6271799358344,-2.6270911249030977,-2.6272478851375443,-2.6266655476886687,-2.626788929318062
49843.0,0.00018715860690577112,-0.8414454271132263,-2.626736477224407,-2.4334666053612954,-2.626471236523537,-2.6271101983916996,-2.6270708593214582,-2.627177551648325,-2.6270887407170225,-2.627241924672356,-2.626658395130443,-2.6267817767598363
49844.0,0.00018954279298100387,-0.8412976075765619,-2.6267352851313692,-2.433272294196164,-2.626471236523537,-2.627106026066068,-2.627065494902789,-2.627174571415731,-2.6270798000192404,-2.627239540486281,-2.6266572030374054,-2.6267811807133175
49845.0,0.0001996755838007431,-0.8411378671095213,-2.6267412455965573,-2.433147720473733,-2.6264730246630936,-2.627106026066068,-2.6270708593214582,-2.6271751674622497,-2.6270851644379096,-2.6272401365327998,-2.626660779316518,-2.6267841609459115
49846.0,0.00018656256038696294,-0.8409799147820372,-2.6267472060617454,-2.433063677914581,-2.626480773267838,-2.627111986531256,-2.627072051414496,-2.6271817239739566,-2.6270863565309472,-2.6272466930445066,-2.626661375363037,-2.6267907174576184
49847.0,0.0001877546534245793,-0.8408851433855467,-2.6267466100152266,-2.433135203496838,-2.6264795811748005,-2.6271131786242936,-2.6270738395540523,-2.6271817239739566,-2.6270893367635413,-2.6272502693236195,-2.626664355595631,-2.626788929318062
49848.0,0.0001877546534245793,-0.8407724905934919,-2.626742437689595,-2.4330934802405215,-2.6264766009422065,-2.627112582577775,-2.6270708593214582,-2.6271787437413625,-2.627086952577466,-2.627248481184063,-2.626664355595631,-2.6267877372250243
49849.0,0.00019729139772551031,-0.8406485129175798,-2.626739457457001,-2.4327954569811174,-2.6264730246630936,-2.6271101983916996,-2.627068475135383,-2.627174571415731,-2.627083972344872,-2.62724490490495,-2.6266566069908865,-2.626782372806355
49850.0,0.00018537046734934656,-0.8405012894274342,-2.6267352851313692,-2.432536176745436,-2.6264706404770184,-2.6271042379265115,-2.627067879088864,-2.6271751674622497,-2.627080992112278,-2.6272413286258374,-2.6266572030374054,-2.6267782004807234
49851.0,0.00019490721165027757,-0.840324859657867,-2.6267406495500385,-2.4323376932546728,-2.62647481280265,-2.6271096023451808,-2.627068475135383,-2.6271763595552873,-2.6270815881587968,-2.6272443088584314,-2.6266595872234806,-2.626782968852874
49852.0,0.00019252302557504482,-0.8402050543075865,-2.626738861410482,-2.432526043954616,-2.6264795811748005,-2.627111390484737,-2.6270726474610147,-2.6271787437413625,-2.627087548623985,-2.6272496732771007,-2.6266637595491122,-2.6267847569924303
49853.0,0.00019013883949981208,-0.8401502180278562,-2.6267460139687078,-2.4327668467482146,-2.626483753500432,-2.6271137746708124,-2.6270756276936087,-2.627184108160032,-2.62708993281006,-2.627249077230582,-2.6266685279212627,-2.626788333271543
49854.0,0.00019073488601862025,-0.840079288492118,-2.62674482187567,-2.432998112797512,-2.6264801772213193,-2.6271131786242936,-2.627074435600571,-2.6271799358344,-2.627086952577466,-2.6272502693236195,-2.6266637595491122,-2.6267895253645808
49855.0,0.00019550325816908577,-0.8400196838402372,-2.6267412455965573,-2.433058313495912,-2.626475408849169,-2.6271078142056243,-2.6270702632749394,-2.6271787437413625,-2.6270857604844284,-2.62724490490495,-2.6266595872234806,-2.626782372806355
49856.0,0.0001937151186126612,-0.8399100112807765,-2.626741841643076,-2.433200768613907,-2.6264801772213193,-2.6271143707173312,-2.6270732435075335,-2.627180531880919,-2.6270887407170225,-2.6272466930445066,-2.626664355595631,-2.6267865451319867
49857.0,0.00020146372335716765,-0.8397460984881041,-2.6267436297826325,-2.4331864634974556,-2.626475408849169,-2.627111390484737,-2.627069071181902,-2.627176955601806,-2.6270863565309472,-2.6272437128119126,-2.626661971409556,-2.6267847569924303
49858.0,0.00019133093253742843,-0.8396101998818158,-2.62674482187567,-2.4331363955898757,-2.626480773267838,-2.62711496676385,-2.6270756276936087,-2.6271817239739566,-2.6270941051356917,-2.6272526535096947,-2.6266655476886687,-2.6267877372250243
49859.0,0.00019252302557504482,-0.8394969510432423,-2.6267412455965573,-2.4329879800066925,-2.6264795811748005,-2.6271101983916996,-2.6270762237401275,-2.6271799358344,-2.6270851644379096,-2.6272478851375443,-2.626660779316518,-2.6267847569924303
49860.0,0.00018715860690577112,-0.839401583600233,-2.6267501862943394,-2.432793668841561,-2.626486733733026,-2.627121523275557,-2.627084568391391,-2.6271882804856634,-2.627097085368286,-2.6272568258353264,-2.626673296293413,-2.6267960818762877
49861.0,0.00018954279298100387,-0.8393187331341186,-2.6267430337361137,-2.432563594885301,-2.6264795811748005,-2.6271143707173312,-2.627072051414496,-2.6271811279274377,-2.62708993281006,-2.6272496732771007,-2.6266625674560746,-2.6267871411785055
49862.0,0.0001889467464621957,-0.8391804503417551,-2.6267376693174445,-2.432311467207845,-2.6264766009422065,-2.6271072181591055,-2.6270708593214582,-2.6271757635087685,-2.6270821842053156,-2.6272413286258374,-2.6266566069908865,-2.626782372806355
49863.0,0.00019907953728193488,-0.8390499161541362,-2.626745417922189,-2.432149938601248,-2.6264825614073946,-2.6271167549034065,-2.627078011879684,-2.627184108160032,-2.6270923169961353,-2.627248481184063,-2.6266661437351875,-2.6267895253645808
49864.0,0.0001877546534245793,-0.8389402435946754,-2.626741841643076,-2.4319681444130117,-2.626477793035244,-2.6271078142056243,-2.6270708593214582,-2.627180531880919,-2.6270821842053156,-2.6272443088584314,-2.6266601832699994,-2.6267835648993927
49865.0,0.00019192697905623664,-0.8388132856861693,-2.626745417922189,-2.431952051157004,-2.6264760048956877,-2.6271143707173312,-2.62707503164709,-2.6271817239739566,-2.6270863565309472,-2.627242520718875,-2.626661971409556,-2.6267865451319867
49866.0,0.00019013883949981208,-0.8387065933593026,-2.6267472060617454,-2.4320807972050664,-2.6264825614073946,-2.6271137746708124,-2.627078011879684,-2.6271853002530694,-2.6270893367635413,-2.627249077230582,-2.626664355595631,-2.6267907174576184
49867.0,0.00019550325816908577,-0.8386148021954062,-2.626738861410482,-2.4321553030199174,-2.6264730246630936,-2.627111390484737,-2.627074435600571,-2.627177551648325,-2.627087548623985,-2.62724490490495,-2.626658395130443,-2.626782968852874
49868.0,0.00019669535120670213,-0.8385104940546148,-2.6267430337361137,-2.4322023906949033,-2.626477793035244,-2.6271131786242936,-2.62707503164709,-2.6271787437413625,-2.6270911249030977,-2.6272496732771007,-2.6266625674560746,-2.6267895253645808
49869.0,0.000183582327792922,-0.838400821495154,-2.62674482187567,-2.432325176277778,-2.626481369314357,-2.627117946996444,-2.6270756276936087,-2.627182916066994,-2.627092913042654,-2.62724490490495,-2.6266631635025934,-2.6267865451319867
49870.0,0.0001943111651314694,-0.8382887647496181,-2.626745417922189,-2.432255438835077,-2.626480773267838,-2.6271197351360005,-2.6270768197866463,-2.627182916066994,-2.6270941051356917,-2.627251461416657,-2.6266667397817063,-2.6267877372250243
49871.0,0.00019073488601862025,-0.838211278702173,-2.6267406495500385,-2.432224444416099,-2.62647481280265,-2.6271107944382184,-2.6270702632749394,-2.6271787437413625,-2.6270851644379096,-2.627243116765394,-2.6266637595491122,-2.626785353038949
49872.0,0.000193119072093853,-0.8381302163756151,-2.6267352851313692,-2.4323066988356947,-2.6264706404770184,-2.6271036418799927,-2.627068475135383,-2.627176955601806,-2.6270815881587968,-2.6272407325793186,-2.6266560109443677,-2.6267811807133175
49873.0,0.00019729139772551031,-0.838059286839877,-2.6267382653639633,-2.4323359051151163,-2.6264700444304996,-2.6271048339730303,-2.6270660909493078,-2.6271757635087685,-2.6270792039727215,-2.6272371563002057,-2.6266536267582925,-2.6267805846667986
49874.0,0.0001889467464621957,-0.8379871652111012,-2.6267352851313692,-2.4323949137204783,-2.626468852337462,-2.627105430019549,-2.627062514670195,-2.6271733793226932,-2.6270798000192404,-2.6272341760676117,-2.626655414897849,-2.626777008387686
49875.0,0.00019013883949981208,-0.8379323289313708,-2.626736477224407,-2.43257909209479,-2.626472428616575,-2.6271078142056243,-2.627068475135383,-2.6271751674622497,-2.6270827802518344,-2.627238944439762,-2.6266595872234806,-2.6267811807133175
49876.0,0.00019133093253742843,-0.837854246837407,-2.6267382653639633,-2.432815126516238,-2.6264730246630936,-2.6271066221125867,-2.627067879088864,-2.6271757635087685,-2.627083376298353,-2.6272443088584314,-2.6266595872234806,-2.626782372806355
49877.0,0.0001883506999433875,-0.8377517268361719,-2.626736477224407,-2.4328508893073666,-2.6264706404770184,-2.6271078142056243,-2.627065494902789,-2.6271757635087685,-2.6270821842053156,-2.6272383483932433,-2.62665481885133,-2.6267805846667986
49878.0,0.00020205976987597583,-0.8376486107884181,-2.626732304898775,-2.4328634062842616,-2.6264664681513867,-2.6271006616473986,-2.627062514670195,-2.6271727832761744,-2.6270756276936087,-2.627232983974574,-2.626651838618736,-2.626773432108573
49879.0,0.00020086767683835945,-0.8375365540428822,-2.626736477224407,-2.4327728072134027,-2.6264730246630936,-2.627108410252143,-2.627069071181902,-2.6271727832761744,-2.6270821842053156,-2.627239540486281,-2.6266566069908865,-2.6267805846667986
49880.0,0.00019192697905623664,-0.837422113111271,-2.6267460139687078,-2.432607106281174,-2.6264819653608757,-2.627118543042963,-2.627074435600571,-2.627184108160032,-2.627090528856579,-2.627246096997988,-2.626667931874744,-2.6267895253645808
49881.0,0.0001889467464621957,-0.8372993275283965,-2.626736477224407,-2.432365111394538,-2.626468852337462,-2.627105430019549,-2.6270696672284206,-2.6271751674622497,-2.6270827802518344,-2.6272413286258374,-2.62665481885133,-2.6267805846667986
49882.0,0.00018239023475530563,-0.8371813103176725,-2.6267382653639633,-2.431982449529463,-2.626477793035244,-2.627109006298662,-2.6270666869958266,-2.6271763595552873,-2.6270827802518344,-2.6272407325793186,-2.6266589911769618,-2.626782968852874
