Timestamp (ms),Ch0 (uV),Ch1 (uV),Ch2 (uV),Ch3 (uV),Ch4 (uV),Ch5 (uV),Ch6 (uV),Ch7 (uV),Ch8 (uV),Ch9 (uV),Ch10 (uV),Ch11 (uV)
1032673,-113922,-107838,40442,316978,166171,-114135,227567,-118473,-114189,66378,233017,40210
1032674,-113952,-107861,40416,316989,166174,-114171,227534,-118502,-114223,66329,232931,40181
1032675,-113990,-107876,40387,317004,166114,-114209,227544,-118540,-114260,66286,232825,40156
1032676,-114044,-107882,40382,317049,166029,-114228,227635,-118573,-114279,66244,232713,40149
1032677,-114047,-107893,40385,317045,165994,-114287,227575,-118604,-114339,66176,232682,40150
1032678,-114064,-107909,40391,316990,166018,-114302,227473,-118601,-114353,66173,232713,40159
1032679,-114052,-107936,40370,316858,166026,-114324,227454,-118596,-114377,66185,232751,40136
1032680,-114067,-107961,40340,316852,166000,-114339,227484,-118583,-114390,66214,232772,40104
1032688,-113875,-107830,40476,317019,166021,-114144,227842,-118464,-114201,66412,233085,40245
1032689,-113852,-107804,40475,317061,166134,-114173,227839,-118448,-114226,66441,233115,40240
1032690,-113860,-107790,40444,317063,166240,-114231,227815,-118431,-114284,66454,233156,40208
1032691,-113887,-107811,40426,317011,166250,-114228,227714,-118413,-114282,66465,233249,40193
1032692,-113871,-107813,40420,317049,166268,-114243,227563,-118421,-114296,66428,233220,40189
1032693,-113888,-107808,40414,317058,166157,-114226,227493,-118469,-114279,66355,233144,40184
1032694,-113941,-107836,40398,317017,166023,-114209,227472,-118497,-114264,66362,233070,40165
1032695,-113970,-107867,40376,316879,166065,-114194,227507,-118529,-114248,66332,232976,40141
1032696,-114004,-107905,40366,316818,166112,-114179,227564,-118570,-114235,66282,232818,40133
1032697,-114033,-107922,40373,316837,166165,-114200,227530,-118591,-114253,66256,232624,40137
1032698,-114051,-107945,40345,316883,166134,-114198,227456,-118578,-114254,66262,232574,40110
1032699,-114064,-107970,40355,316893,166112,-114203,227391,-118584,-114257,66239,232576,40122
1032700,-114114,-107998,40366,316882,166131,-114195,227344,-118574,-114248,66249,232720,40130
1032701,-114135,-107996,40373,316891,166133,-114204,227398,-118564,-114259,66261,232775,40137
1032702,-114095,-107988,40360,316908,166093,-114205,227432,-118560,-114260,66303,232777,40123
1032703,-114035,-107977,40376,316937,166053,-114205,227459,-118536,-114260,66308,232869,40139
1032704,-113975,-107951,40376,316950,166021,-114189,227461,-118514,-114244,66289,232979,40141
1032705,-113956,-107932,40412,316991,165967,-114150,227485,-118467,-114202,66301,233035,40177
1032706,-113931,-107907,40425,317014,165932,-114140,227619,-118464,-114192,66314,233083,40192
1032707,-113897,-107871,40449,317037,165880,-114119,227710,-118448,-114173,66373,233126,40213
1032708,-113884,-107865,40405,316988,165962,-114083,227734,-118412,-114137,66452,233178,40169
1032709,-113875,-107841,40369,316967,166134,-114063,227733,-118410,-114116,66549,233181,40137
1032710,-113846,-107836,40393,317006,166243,-114060,227699,-118401,-114112,66546,233088,40160
1032711,-113819,-107820,40457,317077,166248,-114082,227685,-118412,-114136,66454,232956,40223
1032712,-113855,-107845,40476,317076,166229,-114086,227649,-118418,-114141,66397,232892,40244
1032713,-113862,-107886,40444,317012,166229,-114106,227643,-118446,-114161,66328,232855,40209
1032714,-113888,-107922,40396,316927,166153,-114146,227665,-118513,-114198,66269,232861,40162
1032715,-113899,-107938,40394,316880,166136,-114166,227644,-118541,-114220,66192,232786,40158
1032716,-113919,-107942,40352,316893,166184,-114184,227469,-118562,-114235,66202,232687,40121
1032717,-113952,-107958,40291,316884,166274,-114235,227376,-118588,-114286,66180,232673,40056
1032718,-114007,-107993,40235,316861,166234,-114246,227441,-118586,-114299,66189,232712,40000
1032719,-114037,-107990,40225,316870,166116,-114272,227451,-118585,-114324,66200,232710,39993
1032720,-114033,-107975,40262,316894,165888,-114259,227530,-118576,-114312,66248,232692,40029
1032721,-114054,-107969,40277,316937,165812,-114268,227628,-118567,-114324,66258,232664,40043
1032722,-114079,-107948,40290,316885,165802,-114269,227691,-118539,-114321,66282,232706,40059
1032723,-114050,-107930,40331,316840,165696,-114213,227659,-118490,-114266,66331,232837,40097
1032724,-113998,-107895,40340,316878,165660,-114187,227568,-118464,-114237,66385,232944,40109
1032725,-113978,-107882,40301,316861,165904,-114159,227525,-118476,-114210,66393,233038,40066
1032726,-113990,-107920,40281,316906,166077,-114128,227646,-118467,-114181,66419,233061,40045
1032727,-113948,-107914,40312,317013,166218,-114098,227720,-118465,-114152,66411,232965,40081
1032728,-113886,-107882,40403,317097,166267,-114111,227726,-118456,-114164,66429,232872,40168
1032729,-113819,-107871,40446,317136,166281,-114099,227803,-118458,-114152,66432,232823,40212
1032730,-113781,-107858,40451,317089,166216,-114119,227836,-118438,-114172,66393,232929,40215
1032731,-113811,-107874,40429,317071,166234,-114159,227751,-118434,-114211,66367,233082,40194
1032732,-113870,-107871,40398,316981,166296,-114177,227658,-118449,-114230,66376,233131,40165
1032733,-113919,-107892,40360,316934,166245,-114190,227624,-118491,-114244,66366,233075,40126
1032734,-113976,-107944,40326,316895,166168,-114184,227629,-118509,-114237,66328,233043,40089
1032735,-114012,-107973,40280,316801,166123,-114157,227614,-118513,-114209,66333,233005,40045
1032736,-114028,-107994,40270,316709,166122,-114151,227602,-118544,-114206,66334,232921,40035
1032737,-114036,-108000,40243,316693,166082,-114176,227566,-118560,-114231,66316,232804,40011
1032738,-114023,-108022,40209,316684,166079,-114186,227555,-118566,-114239,66304,232750,39975
1032739,-114026,-108009,40206,316724,166054,-114212,227555,-118577,-114266,66252,232658,39973
1032740,-114036,-108013,40212,316731,166067,-114207,227566,-118585,-114260,66239,232638,39978
1032741,-114029,-107989,40233,316754,166080,-114210,227528,-118559,-114263,66211,232684,40001
1032742,-113999,-107964,40251,316792,166100,-114181,227434,-118547,-114235,66245,232766,40020
1032743,-113990,-107949,40251,316829,166136,-114170,227377,-118521,-114225,66325,232836,40017
1032744,-113969,-107913,40257,316847,166140,-114169,227455,-118509,-114222,66337,232908,40021
1032745,-113940,-107906,40239,316858,166082,-114150,227600,-118500,-114204,66369,232986,40005
1032746,-113901,-107892,40227,316910,166016,-114126,227737,-118480,-114179,66390,233031,39994
1032747,-113862,-107874,40223,316900,165962,-114064,227828,-118421,-114118,66447,233069,39990
1032748,-113810,-107845,40273,316873,165942,-114032,227839,-118390,-114085,66521,233084,40037
1032749,-113786,-107814,40315,316908,165991,-114017,227859,-118372,-114069,66536,233088,40082
1032750,-113768,-107818,40349,316929,166047,-114014,227857,-118371,-114067,66529,233079,40113
1032751,-113790,-107834,40351,316912,166021,-114013,227903,-118359,-114066,66520,233082,40117
1032752,-113844,-107860,40308,316829,166018,-114024,227913,-118364,-114077,66517,233107,40072
1032753,-113846,-107867,40286,316740,166052,-114042,227875,-118384,-114095,66473,233027,40051
1032754,-113901,-107893,40282,316743,166045,-114078,227820,-118407,-114133,66429,232924,40045
1032755,-113922,-107896,40287,316776,166100,-114125,227744,-118437,-114175,66366,232827,40054
1032756,-113977,-107904,40266,316790,166088,-114157,227648,-118464,-114207,66334,232839,40035
1032757,-114019,-107925,40272,316783,166048,-114146,227544,-118434,-114199,66326,232826,40036
1032758,-114007,-107896,40290,316826,165994,-114136,227285,-118421,-114189,66359,232856,40057
1032759,-114008,-107887,40306,316867,165918,-114134,227083,-118415,-114187,66368,232885,40071
1032760,-114044,-107895,40293,316855,165936,-114133,227157,-118415,-114185,66383,232909,40059
1032761,-114057,-107896,40265,316830,165999,-114129,227347,-118415,-114184,66393,232913,40031
1032762,-114051,-107899,40252,316818,166029,-114112,227450,-118407,-114161,66444,232955,40022
1032763,-113989,-107901,40254,316841,166068,-114123,227597,-118422,-114176,66453,232984,40018
1032764,-113921,-107875,40271,316878,166053,-114129,227791,-118412,-114180,66423,232943,40038
1032765,-113847,-107851,40335,316975,166128,-114118,227805,-118413,-114172,66408,232886,40099
1032766,-113801,-107833,40376,316994,166200,-114040,227779,-118380,-114095,66434,232899,40141
1032767,-113801,-107803,40410,317021,166211,-114007,227865,-118356,-114061,66509,232993,40175
1032768,-113788,-107765,40457,317088,166238,-114013,227912,-118384,-114067,66512,233109,40224
1032769,-113750,-107724,40512,317168,166408,-113996,227918,-118374,-114048,66494,233117,40279
1032770,-113697,-107715,40542,317150,166505,-113980,227932,-118364,-114034,66509,233081,40305
1032771,-113666,-107691,40541,317103,166524,-113973,227937,-118353,-114024,66551,233123,40308
1032772,-113669,-107674,40491,317071,166479,-113984,227934,-118353,-114038,66556,233159,40258
1032773,-113685,-107687,40461,317070,166410,-113961,227912,-118355,-114014,66537,233122,40227
1032774,-113714,-107719,40409,317068,166384,-113980,227929,-118373,-114035,66484,233156,40178
1032775,-113732,-107725,40413,317059,166293,-114026,227941,-118401,-114080,66456,233165,40184
1032776,-113762,-107737,40457,317097,166152,-114045,227912,-118429,-114099,66458,233134,40226
1032777,-113782,-107766,40473,317053,166015,-114057,227831,-118427,-114110,66503,233149,40239
1032778,-113796,-107772,40462,316963,165948,-114020,227783,-118420,-114074,66536,233187,40230
1032779,-113807,-107777,40448,316912,165993,-113990,227642,-118394,-114043,66525,233171,40214
1032780,-113802,-107800,40426,316901,166077,-113971,227608,-118379,-114023,66515,233137,40193
1032781,-113806,-107789,40431,316869,166147,-114001,227706,-118376,-114054,66484,233137,40196
1032782,-113810,-107789,40429,316939,166199,-114037,227767,-118401,-114093,66459,233063,40197
1032783,-113817,-107772,40445,317023,166213,-114023,227830,-118395,-114074,66473,233063,40211
1032784,-113813,-107758,40460,317048,166216,-114023,227885,-118386,-114078,66506,233075,40227
1032785,-113778,-107728,40514,317114,166212,-114024,227898,-118386,-114077,66530,233102,40280
1032786,-113764,-107712,40527,317112,166240,-113986,227917,-118373,-114039,66576,233135,40295
1032787,-113741,-107685,40539,317123,166324,-113961,227956,-118348,-114014,66605,233172,40305
1032788,-113708,-107671,40576,317177,166419,-113940,227969,-118326,-113992,66599,233128,40341
1032789,-113695,-107646,40617,317189,166457,-113937,227946,-118294,-113992,66608,233144,40382
1032790,-113670,-107628,40642,317238,166547,-113977,227935,-118286,-114027,66524,233112,40412
1032791,-113661,-107626,40641,317278,166559,-113990,227900,-118303,-114044,66464,233046,40407
1032792,-113707,-107660,40568,317254,166558,-113995,227898,-118317,-114043,66478,232985,40337
1032793,-113759,-107691,40494,317230,166465,-114014,227830,-118338,-114068,66496,232928,40264
1032794,-113798,-107712,40480,317257,166301,-114025,227756,-118380,-114079,66485,232937,40246
1032795,-113828,-107714,40473,317218,166195,-114056,227635,-118417,-114110,66463,232967,40240
1032796,-113846,-107734,40484,317076,166140,-114056,227561,-118434,-114105,66463,232976,40254
1032797,-113878,-107742,40491,316950,166126,-114077,227561,-118449,-114129,66425,232941,40257
1032798,-113884,-107774,40488,316888,166128,-114063,227514,-118448,-114116,66420,232905,40256
1032799,-113878,-107793,40469,316841,166092,-114042,227478,-118430,-114096,66437,232815,40234
1032800,-113891,-107807,40442,316901,166007,-114043,227514,-118435,-114097,66434,232849,40208
1032801,-113943,-107824,40426,316901,165972,-114085,227623,-118424,-114141,66428,232960,40192
1032802,-113981,-107833,40397,316894,165984,-114091,227731,-118427,-114145,66456,233035,40165
1032803,-113980,-107808,40378,316915,166029,-114070,227730,-118419,-114122,66533,233037,40144
1032804,-113928,-107799,40342,316919,166080,-114008,227642,-118403,-114061,66574,233101,40108
1032805,-113895,-107761,40373,316985,166133,-113955,227541,-118400,-114006,66567,233166,40141
1032806,-113877,-107731,40444,317058,166211,-113948,227491,-118373,-113999,66574,233156,40208
1032807,-113850,-107718,40529,317056,166289,-113949,227482,-118370,-113999,66621,233188,40296
1032808,-113828,-107722,40544,317077,166348,-113936,227506,-118351,-113989,66617,233175,40311
1032809,-113801,-107724,40541,317097,166407,-113926,227622,-118325,-113979,66591,233156,40307
1032810,-113827,-107732,40550,317112,166380,-113931,227776,-118330,-113983,66576,233117,40315
1032811,-113821,-107764,40509,317099,166302,-113959,227918,-118352,-114013,66576,233060,40275
1032812,-113795,-107767,40475,317050,166242,-113950,227915,-118372,-114002,66568,232959,40243
1032813,-113825,-107795,40426,317052,166175,-113986,227835,-118414,-114042,66524,232971,40190
1032814,-113862,-107811,40402,317012,166117,-114046,227698,-118431,-114098,66461,233044,40172
1032815,-113887,-107839,40378,316925,166097,-114047,227627,-118452,-114099,66433,233027,40144
1032816,-113935,-107870,40342,316827,166037,-114033,227643,-118444,-114088,66463,232941,40108
1032817,-113983,-107890,40345,316818,166116,-114064,227566,-118461,-114118,66409,232791,40113
1032818,-114015,-107893,40354,316809,166122,-114085,227577,-118476,-114139,66381,232741,40122
1032819,-114052,-107904,40336,316774,166053,-114087,227595,-118488,-114138,66339,232777,40102
1032820,-114049,-107900,40317,316761,166032,-114098,227611,-118492,-114153,66285,232811,40085
1032821,-114039,-107893,40327,316752,165994,-114096,227688,-118493,-114150,66283,232846,40095
1032822,-114017,-107881,40324,316797,165950,-114108,227741,-118486,-114159,66244,232921,40091
1032823,-113998,-107870,40292,316842,165980,-114086,227783,-118477,-114139,66291,232967,40056
1032824,-113970,-107852,40276,316811,166043,-114030,227785,-118433,-114082,66306,232980,40043
1032825,-113942,-107848,40256,316766,166022,-114007,227816,-118376,-114057,66350,233054,40023
1032826,-113925,-107838,40270,316775,165949,-113961,227833,-118336,-114014,66398,233147,40036
1032827,-113890,-107824,40324,316816,165939,-113943,227821,-118296,-113993,66501,233190,40093
1032828,-113891,-107815,40382,316875,166026,-113923,227788,-118292,-113976,66554,233207,40148
1032829,-113908,-107820,40419,316940,166129,-113913,227779,-118280,-113967,66606,233194,40189
1032830,-113896,-107846,40399,316973,166172,-113921,227831,-118309,-113977,66614,233175,40169
1032831,-113886,-107849,40427,317024,166202,-113958,227836,-118345,-114012,66588,233082,40193
1032832,-113907,-107856,40448,317105,166152,-114015,227839,-118396,-114066,66521,233042,40216
1032833,-113921,-107864,40410,317088,166099,-114030,227793,-118438,-114084,66452,233005,40177
1032834,-113944,-107883,40370,317034,166028,-114061,227742,-118458,-114114,66447,232934,40134
1032835,-113976,-107901,40307,316936,166043,-114074,227692,-118463,-114124,66465,232837,40075
1032836,-113987,-107905,40265,316792,166137,-114072,227583,-118489,-114126,66432,232813,40032
1032837,-113993,-107897,40267,316662,166145,-114112,227495,-118488,-114166,66336,232844,40031
1032838,-114014,-107897,40272,316630,166152,-114138,227501,-118503,-114194,66278,232872,40037
1032839,-114036,-107911,40267,316696,166134,-114173,227478,-118491,-114229,66269,232759,40034
1032840,-114046,-107939,40253,316755,166109,-114161,227475,-118494,-114213,66287,232741,40020
1032841,-114040,-107928,40284,316844,166032,-114140,227544,-118501,-114195,66297,232761,40052
1032842,-114012,-107929,40302,316857,166081,-114123,227565,-118498,-114178,66263,232755,40068
1032843,-113999,-107927,40320,316900,166148,-114117,227502,-118489,-114170,66300,232808,40088
1032844,-113998,-107901,40315,316979,166142,-114084,227527,-118466,-114138,66338,232840,40083
1032845,-113982,-107894,40314,317030,166134,-114069,227556,-118426,-114122,66377,232901,40079
1032846,-113948,-107896,40292,317044,166180,-114015,227567,-118371,-114070,66441,232931,40054
1032847,-113905,-107893,40301,317012,166264,-114004,227649,-118390,-114058,66469,233048,40068
1032848,-113854,-107871,40324,316935,166305,-114004,227639,-118379,-114053,66518,233156,40088
1032849,-113805,-107853,40344,316892,166266,-113961,227673,-118353,-114011,66550,233200,40111
1032850,-113790,-107827,40366,316907,166223,-113949,227720,-118332,-113999,66590,233152,40132
1032851,-113788,-107837,40352,316864,166206,-113989,227732,-118318,-114042,66583,233122,40118
1032852,-113798,-107838,40352,316882,166209,-114041,227635,-118324,-114095,66530,233089,40118
1032853,-113832,-107852,40337,316912,166179,-114098,227536,-118339,-114151,66437,233009,40102
1032854,-113871,-107882,40310,316947,166168,-114159,227591,-118380,-114215,66354,232915,40075
1032855,-113924,-107914,40277,316930,166080,-114191,227654,-118426,-114244,66286,232893,40043
1032856,-114042,-107930,40244,316872,166038,-114148,227693,-118435,-114200,66269,232852,40010
1032857,-114107,-107939,40199,316792,166008,-114114,227675,-118463,-114167,66266,232830,39965
1032858,-114109,-107943,40198,316739,165965,-114120,227639,-118466,-114175,66248,232827,39966
1032859,-114060,-107951,40187,316745,165965,-114131,227620,-118473,-114187,66236,232740,39950
1032860,-114044,-107958,40175,316692,165931,-114110,227643,-118452,-114160,66274,232665,39942
1032861,-114054,-107944,40186,316692,165880,-114104,227713,-118459,-114155,66323,232725,39956
1032862,-114037,-107939,40191,316706,165862,-114106,227776,-118461,-114158,66303,232814,39959
1032863,-114026,-107956,40164,316719,165975,-114105,227786,-118462,-114156,66335,232864,39932
1032864,-113961,-107949,40183,316765,166020,-114092,227804,-118458,-114148,66384,232902,39950
1032865,-113914,-107934,40200,316818,166046,-114087,227797,-118448,-114142,66404,232926,39965
1032866,-113878,-107926,40214,316827,166065,-114063,227824,-118397,-114117,66443,232955,39981
1032867,-113844,-107901,40252,316843,166057,-114014,227826,-118349,-114064,66510,232996,40020
1032868,-113800,-107886,40298,316821,166124,-114001,227761,-118326,-114056,66525,233055,40063
1032869,-113747,-107862,40365,316849,166233,-114009,227715,-118324,-114066,66512,233073,40131
1032870,-113769,-107862,40355,316816,166227,-113987,227829,-118302,-114042,66512,233053,40119
1032871,-113794,-107880,40301,316818,166171,-113980,227919,-118310,-114034,66508,233036,40066
1032872,-113834,-107879,40246,316782,166140,-113990,227941,-118321,-114045,66483,233026,40012
1032873,-113872,-107881,40167,316735,166018,-114009,227908,-118342,-114063,66478,233033,39932
1032874,-113906,-107899,40128,316753,165964,-114044,227767,-118389,-114097,66427,233081,39897
1032875,-113950,-107940,40117,316731,165971,-114086,227654,-118436,-114140,66385,233111,39888
1032876,-114001,-107973,40119,316742,165977,-114104,227585,-118454,-114154,66398,233076,39885
1032877,-114026,-107988,40128,316792,165866,-114098,227509,-118455,-114154,66367,233011,39895
1032878,-114004,-107997,40125,316801,165847,-114102,227484,-118448,-114157,66360,232913,39892
1032879,-114005,-108027,40097,316695,165762,-114113,227562,-118451,-114163,66365,232927,39864
1032880,-113999,-108033,40102,316685,165745,-114131,227621,-118477,-114185,66344,232921,39869
1032881,-114005,-108019,40118,316692,165843,-114130,227699,-118466,-114180,66326,232849,39885
1032882,-113947,-108010,40114,316619,165978,-114152,227735,-118473,-114203,66297,232898,39883
1032883,-113912,-107985,40114,316645,166022,-114172,227766,-118469,-114223,66277,232963,39880
1032884,-113884,-107960,40131,316689,166092,-114177,227798,-118482,-114232,66251,232991,39898
1032885,-113844,-107940,40135,316754,166175,-114150,227798,-118444,-114203,66298,232909,39902
1032886,-113802,-107898,40161,316830,166262,-114125,227758,-118429,-114178,66326,232871,39925
1032887,-113767,-107869,40155,316882,166291,-114108,227792,-118395,-114161,66379,232878,39919
1032888,-113756,-107843,40197,316900,166296,-114092,227853,-118382,-114148,66437,232869,39963
1032889,-113701,-107806,40215,316915,166242,-114092,227901,-118336,-114146,66475,232849,39982
1032890,-113682,-107783,40224,316981,166189,-114102,227930,-118309,-114156,66450,232790,39989
1032891,-113712,-107803,40274,317038,166108,-114108,227897,-118326,-114161,66446,232822,40040
1032892,-113753,-107812,40299,317024,166063,-114127,227819,-118346,-114179,66438,232825,40066
1032893,-113810,-107835,40302,316914,166063,-114168,227751,-118387,-114222,66398,232881,40071
1032894,-113858,-107847,40349,316789,165999,-114172,227642,-118399,-114227,66360,232922,40115
1032895,-113886,-107879,40342,316700,165949,-114186,227614,-118460,-114238,66346,232946,40109
1032896,-113907,-107889,40340,316666,165854,-114194,227538,-118510,-114248,66335,232967,40103
1032897,-113954,-107927,40326,316634,165871,-114222,227532,-118551,-114275,66308,232970,40091
1032898,-113968,-107946,40279,316638,165889,-114237,227528,-118550,-114289,66283,232903,40044
1032899,-113984,-107949,40280,316671,165864,-114220,227525,-118541,-114274,66264,232813,40047
1032900,-113999,-107948,40293,316724,165921,-114220,227487,-118567,-114272,66221,232781,40058
1032901,-113981,-107946,40333,316811,166048,-114212,227500,-118569,-114265,66142,232737,40101
1032902,-113976,-107921,40348,316886,166115,-114203,227521,-118567,-114259,66109,232716,40114
1032903,-113972,-107898,40361,316931,166190,-114206,227597,-118567,-114257,66118,232698,40130
1032904,-113917,-107866,40379,316918,166164,-114182,227649,-118532,-114233,66165,232712,40146
1032905,-113852,-107830,40401,316898,166174,-114164,227656,-118522,-114219,66174,232746,40165
1032906,-113822,-107798,40419,316870,166296,-114140,227610,-118498,-114192,66200,232779,40184
1032907,-113822,-107778,40448,316910,166372,-114124,227535,-118480,-114177,66279,233000,40214
1032908,-113884,-107764,40467,316985,166366,-114081,227571,-118443,-114138,66352,233017,40236
1032909,-113878,-107749,40488,317052,166335,-114047,227654,-118417,-114104,66442,232964,40256
1032910,-113844,-107747,40506,317081,166303,-114091,227722,-118446,-114145,66455,232992,40271
1032911,-113858,-107753,40505,317113,166338,-114105,227755,-118466,-114160,66441,232892,40273
1032912,-113866,-107755,40501,317103,166282,-114129,227787,-118480,-114181,66385,232783,40266
1032913,-113877,-107781,40507,317100,166193,-114181,227728,-118512,-114233,66275,232793,40272
1032914,-113909,-107813,40454,317025,166094,-114209,227659,-118550,-114264,66254,232880,40223
1032915,-113985,-107839,40421,316943,166012,-114224,227616,-118576,-114277,66259,232956,40189
1032916,-114042,-107868,40395,316898,165948,-114249,227606,-118585,-114300,66254,232957,40163
1032917,-114114,-107882,40395,316848,165944,-114263,227549,-118611,-114312,66249,232949,40165
1032918,-114083,-107891,40357,316827,165967,-114271,227390,-118627,-114323,66260,232998,40126
1032919,-114058,-107912,40310,316787,165948,-114305,227390,-118647,-114359,66258,233003,40078
1032920,-114035,-107910,40309,316789,165948,-114319,227463,-118644,-114370,66201,232931,40077
1032921,-113981,-107882,40326,316795,165987,-114305,227486,-118625,-114356,66183,232885,40094
1032922,-113964,-107875,40361,316818,166036,-114271,227521,-118610,-114323,66166,232812,40131
1032923,-113934,-107861,40392,316847,166068,-114262,227605,-118600,-114313,66199,232731,40159
1032924,-113925,-107862,40456,316916,166062,-114241,227666,-118588,-114295,66252,232685,40223
1032925,-113894,-107873,40484,316950,166033,-114190,227698,-118549,-114241,66321,232700,40251
1032926,-113876,-107860,40503,317001,166049,-114170,227695,-118524,-114223,66336,232769,40270
1032927,-113835,-107844,40501,316988,166095,-114129,227696,-118491,-114182,66397,232837,40267
1032928,-113785,-107829,40487,316971,166157,-114108,227722,-118457,-114159,66396,232941,40255
1032929,-113791,-107813,40508,317040,166194,-114107,227729,-118448,-114159,66383,233035,40270
1032930,-113754,-107778,40509,317113,166217,-114138,227713,-118446,-114191,66377,232983,40273
1032931,-113764,-107795,40501,317099,166229,-114143,227703,-118455,-114197,66370,232945,40268
1032932,-113794,-107810,40488,316987,166122,-114167,227726,-118464,-114218,66304,233024,40256
1032933,-113797,-107824,40473,316944,166016,-114198,227661,-118505,-114253,66257,233020,40234
1032934,-113810,-107824,40497,316935,165956,-114216,227535,-118539,-114271,66273,232868,40263
1032935,-113899,-107864,40451,316857,165862,-114195,227485,-118543,-114247,66341,232858,40218
1032936,-113980,-107888,40403,316773,165846,-114176,227379,-118528,-114231,66366,232893,40171
1032937,-114014,-107897,40383,316761,165870,-114214,227327,-118564,-114267,66317,232888,40148
1032938,-114038,-107908,40327,316731,166000,-114249,227380,-118607,-114303,66232,232836,40090
1032939,-114030,-107926,40304,316728,166032,-114297,227449,-118640,-114350,66198,232747,40071
1032940,-114043,-107944,40349,316796,166081,-114313,227469,-118637,-114365,66159,232674,40116
1032941,-114048,-107938,40363,316870,166119,-114341,227489,-118635,-114392,66145,232709,40127
1032942,-114030,-107930,40346,316872,166153,-114311,227521,-118639,-114368,66149,232746,40110
1032943,-114018,-107917,40308,316890,166122,-114250,227584,-118597,-114304,66185,232774,40075
1032944,-113970,-107908,40335,316878,166071,-114165,227599,-118579,-114218,66213,232791,40100
1032945,-113927,-107871,40369,316913,166028,-114103,227564,-118544,-114154,66235,232831,40133
1032946,-113899,-107864,40460,316904,166080,-114106,227594,-118535,-114163,66268,232880,40223
1032947,-113908,-107865,40509,316903,166184,-114118,227667,-118512,-114172,66365,232901,40274
1032948,-113913,-107848,40524,316936,166220,-114091,227702,-118485,-114144,66432,232922,40293
1032949,-113873,-107842,40559,316973,166265,-114094,227721,-118481,-114148,66405,232911,40326
1032950,-113854,-107823,40575,316985,166345,-114086,227742,-118467,-114138,66397,232842,40342
1032951,-113866,-107824,40579,316951,166354,-114115,227802,-118470,-114168,66374,232713,40348
1032952,-113898,-107841,40546,316978,166316,-114116,227819,-118482,-114169,66377,232629,40314
1032953,-113943,-107864,40525,316991,166260,-114173,227715,-118529,-114227,66285,232690,40290
1032954,-113992,-107893,40470,316952,166249,-114229,227683,-118567,-114282,66226,232715,40234
1032955,-114041,-107917,40415,316906,166176,-114244,227615,-118594,-114296,66205,232785,40179
1032956,-114130,-107939,40391,316875,166103,-114253,227514,-118589,-114308,66254,232800,40157
1032957,-114195,-107949,40360,316797,166007,-114251,227484,-118588,-114307,66274,232834,40125
1032958,-114219,-107975,40296,316717,165963,-114253,227530,-118579,-114303,66275,232883,40062
1032959,-114197,-108000,40253,316704,166016,-114281,227513,-118591,-114337,66230,232893,40017
1032960,-114146,-108007,40239,316740,166026,-114295,227517,-118603,-114349,66211,232879,40006
1032961,-114107,-108000,40257,316811,165972,-114312,227568,-118598,-114365,66232,232794,40023
1032962,-114075,-107967,40302,316824,165900,-114323,227579,-118599,-114377,66283,232803,40065
1032963,-114013,-107957,40348,316769,165808,-114288,227600,-118551,-114340,66292,232880,40110
1032964,-113947,-107933,40403,316729,165815,-114236,227551,-118495,-114288,66280,232960,40170
1032965,-113905,-107923,40430,316751,165881,-114219,227439,-118491,-114274,66329,233051,40195
1032966,-113900,-107929,40418,316810,166039,-114204,227490,-118471,-114254,66338,233047,40181
1032967,-113880,-107910,40440,316885,166144,-114151,227556,-118442,-114206,66325,233004,40203
1032968,-113850,-107876,40493,316974,166150,-114107,227652,-118418,-114158,66295,232864,40261
1032969,-113822,-107849,40529,316990,166129,-114060,227701,-118379,-114112,66338,232753,40292
1032970,-113819,-107871,40516,316985,166091,-114064,227788,-118400,-114117,66366,232835,40281
1032971,-113865,-107910,40483,316982,166100,-114087,227842,-118446,-114140,66411,232862,40248
1032972,-113896,-107899,40477,316963,166026,-114113,227796,-118466,-114169,66402,232862,40237
1032973,-113918,-107917,40418,316937,166031,-114186,227742,-118518,-114239,66341,232921,40180
1032974,-113958,-107959,40365,316858,166063,-114235,227620,-118567,-114288,66330,233023,40130
1032975,-113996,-107994,40320,316783,165995,-114280,227600,-118575,-114333,66339,233013,40082
1032976,-114039,-108013,40296,316757,165978,-114293,227565,-118590,-114346,66323,232985,40061
1032977,-114097,-108038,40281,316770,165957,-114310,227541,-118613,-114362,66277,232925,40043
1032978,-114098,-108027,40281,316785,165976,-114306,227510,-118635,-114361,66229,232843,40044
1032979,-114109,-108035,40304,316777,165976,-114314,227478,-118653,-114368,66199,232778,40068
1032980,-114102,-108032,40296,316755,166056,-114331,227512,-118677,-114382,66201,232765,40059
1032981,-114102,-108037,40296,316745,166108,-114314,227574,-118671,-114366,66221,232812,40062
1032982,-114064,-108004,40290,316798,166088,-114296,227567,-118649,-114350,66228,232802,40054
1032983,-114014,-107961,40326,316895,166102,-114266,227429,-118603,-114317,66213,232744,40091
1032984,-113955,-107924,40350,316916,166140,-114238,227326,-118559,-114293,66257,232783,40116
1032985,-113918,-107908,40375,316900,166152,-114222,227374,-118526,-114277,66277,232821,40140
1032986,-113943,-107901,40417,316967,166205,-114239,227507,-118538,-114294,66279,232864,40183
1032987,-113905,-107901,40457,316998,166243,-114233,227634,-118525,-114287,66285,232914,40223
1032988,-113866,-107903,40435,316995,166279,-114235,227770,-118488,-114285,66320,232960,40200
1032989,-113829,-107889,40409,316978,166278,-114252,227874,-118487,-114306,66328,233017,40174
1032990,-113821,-107868,40413,317004,166314,-114265,227914,-118479,-114321,66297,233022,40177
1032991,-113827,-107868,40420,317013,166304,-114260,227890,-118458,-114312,66283,232902,40187
1032992,-113835,-107859,40425,316996,166259,-114238,227800,-118444,-114293,66248,232803,40187
1032993,-113872,-107878,40397,316932,166193,-114230,227716,-118491,-114281,66230,232765,40162
1032994,-113913,-107906,40386,316817,166211,-114241,227657,-118536,-114299,66215,232766,40151
1032995,-113961,-107930,40384,316683,166187,-114266,227558,-118570,-114321,66240,232815,40148
1032996,-113943,-107919,40391,316630,165947,-114258,227529,-118556,-114315,66255,232787,40159
1032997,-113946,-107920,40400,316715,165720,-114312,227544,-118583,-114367,66185,232751,40165
1032998,-113983,-107928,40413,316724,165653,-114341,227631,-118595,-114395,66171,232672,40180
1032999,-114043,-107957,40350,316578,165615,-114342,227646,-118585,-114393,66242,232784,40117
1033000,-114046,-107958,40338,316531,165497,-114308,227631,-118564,-114359,66264,232936,40106
1033001,-114037,-107957,40341,316553,165582,-114300,227615,-118553,-114352,66228,232925,40104
1033002,-114028,-107957,40335,316640,165773,-114286,227559,-118523,-114339,66220,232808,40101
1033003,-113985,-107965,40314,316696,165967,-114299,227558,-118529,-114353,66215,232815,40079
1033004,-113929,-107957,40311,316782,166085,-114317,227523,-118546,-114368,66263,232840,40079
1033005,-113910,-107933,40336,316827,166145,-114308,227447,-118541,-114359,66326,232941,40102
1033006,-113907,-107918,40351,316853,166208,-114251,227482,-118511,-114302,66385,232907,40115
1033007,-113932,-107854,40380,316913,166247,-114189,227612,-118454,-114242,66405,232819,40145
1033008,-113885,-107842,40366,316953,166318,-114182,227697,-118462,-114236,66412,232848,40131
1033009,-113843,-107859,40391,316978,166392,-114209,227724,-118473,-114263,66374,232996,40158
1033010,-113819,-107874,40378,317049,166384,-114212,227768,-118469,-114268,66355,233025,40146
1033011,-113822,-107871,40423,317129,166374,-114228,227749,-118498,-114281,66326,232905,40190
1033012,-113803,-107879,40411,317105,166281,-114266,227769,-118517,-114317,66254,232877,40175
1033013,-113847,-107885,40388,317032,166217,-114277,227741,-118541,-114330,66201,232867,40152
1033014,-113901,-107926,40361,316953,166235,-114300,227680,-118574,-114353,66187,232890,40127
1033015,-113937,-107942,40327,316818,166174,-114330,227621,-118585,-114382,66206,232949,40094
1033016,-113977,-107948,40324,316777,166061,-114317,227518,-118562,-114368,66221,232961,40087
1033017,-114012,-107939,40329,316795,165959,-114315,227443,-118560,-114367,66202,232875,40093
1033018,-113995,-107937,40355,316768,165969,-114350,227441,-118579,-114401,66185,232791,40122
1033019,-114010,-107931,40337,316741,165986,-114383,227444,-118596,-114435,66140,232788,40103
1033020,-114014,-107944,40313,316761,166032,-114377,227454,-118609,-114429,66106,232787,40076
1033021,-113968,-107941,40324,316790,166112,-114372,227433,-118604,-114426,66097,232802,40089
1033022,-113954,-107957,40319,316781,166110,-114368,227451,-118594,-114420,66162,232852,40083
1033023,-113940,-107935,40337,316806,166034,-114329,227540,-118558,-114382,66212,232826,40103
1033024,-113908,-107899,40368,316847,165986,-114297,227636,-118564,-114350,66290,232797,40133
1033025,-113882,-107874,40389,316894,165991,-114297,227682,-118547,-114348,66342,232772,40154
1033026,-113839,-107851,40396,316885,166096,-114260,227752,-118513,-114312,66276,232816,40164
1033027,-113787,-107826,40420,316877,166186,-114232,227765,-118491,-114283,66247,232915,40189
1033028,-113784,-107790,40453,316930,166173,-114203,227755,-118492,-114257,66315,232958,40220
1033029,-113797,-107760,40528,316986,166083,-114191,227786,-118464,-114243,66370,232970,40298
1033030,-113802,-107738,40559,317065,166168,-114202,227742,-118469,-114254,66361,232949,40326
1033031,-113796,-107733,40563,317128,166258,-114212,227664,-118502,-114264,66283,232912,40329
1033032,-113819,-107738,40584,317105,166335,-114252,227611,-118527,-114305,66189,232871,40350
1033033,-113852,-107756,40562,317018,166280,-114264,227562,-118533,-114319,66162,232845,40326
1033034,-113874,-107771,40529,316953,166128,-114279,227459,-118541,-114330,66187,232874,40296
1033035,-113900,-107793,40473,316908,166063,-114284,227431,-118545,-114336,66187,232822,40239
1033036,-113944,-107821,40448,316842,166071,-114300,227474,-118539,-114348,66191,232692,40211
1033037,-113933,-107836,40444,316764,166040,-114326,227399,-118550,-114378,66192,232618,40208
1033038,-113927,-107844,40455,316749,165933,-114355,227333,-118557,-114409,66177,232702,40220
1033039,-113973,-107881,40453,316758,165891,-114403,227378,-118600,-114455,66149,232796,40218
1033040,-114017,-107890,40443,316762,165927,-114393,227423,-118603,-114446,66154,232769,40210
1033041,-114036,-107882,40442,316836,166036,-114396,227423,-118591,-114450,66136,232760,40207
1033042,-114030,-107876,40459,316937,166109,-114415,227413,-118613,-114471,66139,232805,40221
1033043,-114025,-107885,40470,316996,166205,-114387,227387,-118591,-114440,66166,232861,40235
1033044,-114014,-107854,40464,317003,166151,-114352,227494,-118567,-114406,66198,232924,40231
1033045,-113961,-107818,40472,316978,166110,-114322,227662,-118554,-114372,66233,232887,40239
1033046,-113930,-107802,40521,316990,166199,-114300,227711,-118539,-114352,66243,232794,40287
1033047,-113908,-107768,40555,317049,166235,-114274,227705,-118515,-114328,66252,232864,40320
1033048,-113874,-107777,40572,317044,166273,-114228,227709,-118501,-114280,66258,232946,40338
1033049,-113843,-107774,40578,317046,166304,-114215,227787,-118489,-114269,66292,232995,40342
1033050,-113820,-107784,40594,317047,166286,-114228,227847,-118472,-114282,66292,232989,40362
1033051,-113857,-107800,40582,317032,166263,-114219,227854,-118473,-114274,66349,233007,40347
1033052,-113884,-107808,40574,316984,166251,-114242,227804,-118498,-114293,66353,233029,40339
1033053,-113922,-107839,40552,316917,166169,-114277,227745,-118522,-114330,66360,233030,40318
1033054,-113941,-107887,40482,316892,166077,-114303,227676,-118542,-114356,66360,233040,40249
1033055,-113943,-107892,40458,316838,166009,-114308,227639,-118552,-114358,66334,232974,40224
1033056,-113955,-107887,40476,316860,165876,-114322,227615,-118556,-114374,66271,232849,40242
1033057,-113960,-107876,40491,316886,165780,-114328,227600,-118557,-114380,66196,232704,40258
1033058,-113974,-107878,40478,316865,165747,-114297,227575,-118535,-114349,66176,232617,40242
1033059,-114030,-107910,40411,316722,165828,-114273,227485,-118523,-114328,66227,232666,40174
1033060,-114057,-107920,40366,316649,165896,-114259,227434,-118504,-114309,66277,232778,40133
1033061,-114044,-107918,40355,316692,165931,-114236,227423,-118468,-114290,66245,232768,40122
1033062,-114020,-107914,40373,316829,165978,-114249,227425,-118460,-114302,66216,232740,40137
1033063,-114011,-107917,40397,316900,165981,-114231,227491,-118470,-114284,66229,232765,40162
1033064,-113993,-107920,40403,316873,166028,-114227,227578,-118486,-114281,66258,232846,40166
1033065,-113958,-107911,40410,316799,166121,-114198,227681,-118474,-114253,66291,232847,40178
1033066,-113914,-107900,40429,316828,166172,-114188,227754,-118486,-114244,66297,232902,40193
1033067,-113865,-107876,40456,316923,166165,-114181,227819,-118475,-114235,66260,232940,40221
1033068,-113828,-107859,40442,317017,166186,-114182,227829,-118473,-114234,66287,233017,40205
1033069,-113798,-107830,40451,317133,166218,-114183,227742,-118455,-114235,66329,233070,40214
1033070,-113817,-107823,40428,317201,166258,-114144,227569,-118414,-114195,66398,233103,40192
1033071,-113842,-107820,40362,317129,166270,-114119,227541,-118370,-114173,66432,233114,40127
1033072,-113886,-107855,40285,317003,166266,-114152,227655,-118396,-114205,66373,233159,40051
1033073,-113883,-107898,40232,316921,166237,-114172,227642,-118426,-114225,66285,233171,39997
1033074,-113907,-107927,40237,316913,166239,-114240,227542,-118452,-114291,66266,233060,40006
1033075,-113921,-107929,40280,316872,166189,-114284,227408,-118462,-114336,66258,232953,40045
1033076,-113961,-107954,40315,316824,166183,-114298,227363,-118495,-114350,66279,232896,40079
1033077,-114008,-108000,40336,316782,166149,-114316,227276,-118492,-114372,66270,232881,40103
1033078,-114038,-108044,40332,316752,166187,-114324,227291,-118508,-114378,66257,232893,40094
1033079,-114082,-108060,40315,316782,166156,-114330,227395,-118524,-114382,66201,232832,40083
1033080,-114088,-108031,40345,316796,166090,-114299,227531,-118526,-114353,66170,232694,40110
1033081,-114080,-108017,40345,316742,166035,-114253,227655,-118485,-114308,66189,232597,40110
1033082,-114020,-107991,40347,316757,166036,-114238,227707,-118472,-114290,66227,232510,40110
1033083,-113985,-107988,40349,316771,166062,-114237,227748,-118460,-114288,66263,232488,40112
1033084,-113962,-107974,40354,316811,166062,-114222,227713,-118449,-114277,66293,232663,40123
1033085,-113919,-107994,40360,316824,166002,-114198,227718,-118430,-114252,66316,232844,40123
1033086,-113893,-107990,40362,316891,165936,-114153,227689,-118399,-114204,66366,232955,40126
1033087,-113877,-107972,40378,316922,165964,-114118,227744,-118376,-114171,66494,232967,40144
1033088,-113828,-107947,40397,316812,166031,-114094,227876,-118356,-114148,66538,232952,40161
1033089,-113814,-107936,40396,316737,166019,-114051,227949,-118328,-114102,66515,233069,40163
1033090,-113812,-107925,40401,316767,166081,-114036,227941,-118327,-114089,66445,233089,40165
1033091,-113825,-107932,40369,316790,166075,-114051,227946,-118324,-114103,66424,233043,40134
1033092,-113838,-107954,40366,316798,166064,-114077,227928,-118343,-114129,66357,233001,40132
1033093,-113875,-107984,40348,316806,166008,-114106,227851,-118377,-114160,66299,232983,40113
1033094,-113912,-108005,40320,316787,165961,-114112,227744,-118414,-114166,66274,232983,40082
1033095,-113967,-108026,40292,316726,165914,-114134,227690,-118413,-114189,66288,232949,40056
1033096,-114014,-108042,40249,316676,165930,-114138,227603,-118420,-114190,66308,232910,40014
1033097,-114032,-108065,40210,316662,165911,-114164,227537,-118452,-114216,66305,232940,39975
1033098,-114058,-108072,40171,316668,165948,-114208,227464,-118467,-114260,66266,233004,39939
1033099,-114074,-108107,40175,316653,166002,-114242,227459,-118503,-114300,66212,232999,39940
1033100,-114061,-108094,40170,316694,166031,-114260,227471,-118501,-114312,66159,232962,39934
1033101,-114014,-108076,40195,316705,166017,-114244,227538,-118489,-114299,66098,232928,39963
1033102,-113994,-108076,40211,316725,166015,-114209,227621,-118455,-114259,66099,232815,39977
1033103,-113944,-108051,40238,316767,166048,-114183,227667,-118415,-114238,66198,232606,40004
1033104,-113914,-108010,40249,316785,166103,-114189,227739,-118389,-114242,66248,232524,40012
1033105,-113948,-107999,40255,316814,166152,-114172,227790,-118390,-114227,66289,232580,40019
1033106,-113958,-107995,40261,316867,166196,-114157,227834,-118396,-114215,66331,232715,40024
1033107,-113946,-107982,40268,316895,166173,-114139,227860,-118379,-114191,66379,232894,40035
1033108,-113912,-107972,40291,316906,166189,-114144,227854,-118407,-114197,66354,233117,40055
1033109,-113897,-107961,40296,316955,166185,-114126,227854,-118378,-114175,66425,233154,40062
1033110,-113849,-107954,40267,317021,166201,-114105,227845,-118370,-114159,66457,233064,40033
1033111,-113841,-107975,40255,317018,166206,-114107,227779,-118383,-114160,66485,233082,40023
1033112,-113844,-108006,40258,316953,166168,-114111,227710,-118393,-114162,66462,233087,40022
1033113,-113870,-107998,40229,316920,166086,-114129,227665,-118401,-114184,66421,233052,39992
1033114,-113893,-108021,40173,316811,165982,-114132,227679,-118401,-114189,66401,233001,39936
1033115,-113930,-108046,40110,316695,165911,-114134,227633,-118396,-114189,66418,232993,39876
1033116,-113937,-108048,40071,316647,165938,-114170,227549,-118384,-114223,66372,232931,39840
1033117,-113953,-108074,40100,316608,165956,-114266,227500,-118406,-114318,66351,232859,39864
1033118,-114003,-108083,40141,316617,166004,-114280,227391,-118403,-114336,66355,232867,39905
1033119,-114052,-108091,40190,316647,166074,-114260,227178,-118384,-114315,66288,232837,39954
1033120,-114076,-108097,40211,316647,166084,-114216,227109,-118368,-114271,66265,232833,39978
1033121,-114080,-108089,40228,316656,166006,-114173,227239,-118370,-114226,66312,232808,39994
1033122,-114057,-108090,40230,316685,165901,-114123,227403,-118373,-114175,66335,232797,39997
1033123,-114009,-108078,40228,316631,165866,-114048,227467,-118346,-114101,66374,232835,39992
1033124,-113976,-108048,40221,316616,165904,-114063,227667,-118347,-114117,66350,232822,39989
1033125,-113922,-108030,40225,316644,165903,-114116,227839,-118361,-114169,66352,232824,39989
1033126,-113889,-108009,40243,316728,165917,-114131,227874,-118333,-114187,66376,232864,40007
1033127,-113865,-107985,40251,316765,166072,-114124,227859,-118317,-114177,66372,232924,40017
1033128,-113842,-107972,40256,316882,166183,-114144,227837,-118325,-114198,66340,233017,40022
1033129,-113827,-107969,40305,316966,166242,-114139,227791,-118317,-114193,66355,233085,40072
1033130,-113816,-107967,40314,317028,166152,-114091,227739,-118308,-114143,66419,233106,40078
1033131,-113835,-107947,40243,316947,165997,-114047,227807,-118280,-114101,66476,233128,40007
1033132,-113893,-107961,40158,316750,165964,-114048,227877,-118285,-114103,66474,233219,39923
1033133,-113887,-107969,40104,316693,166002,-114101,227839,-118339,-114153,66403,233189,39870
1033134,-113881,-107981,40068,316650,166031,-114119,227702,-118380,-114173,66367,233100,39831
1033135,-113896,-108005,40056,316641,166052,-114152,227586,-118415,-114204,66344,233001,39821
1033136,-113907,-108028,40126,316717,166023,-114185,227543,-118447,-114238,66279,232855,39891
1033137,-113955,-108046,40213,316740,165916,-114228,227625,-118481,-114279,66213,232707,39977
1033138,-113964,-108057,40236,316751,165742,-114203,227668,-118473,-114254,66223,232679,40000
1033139,-113973,-108048,40269,316750,165599,-114199,227664,-118470,-114250,66206,232654,40036
1033140,-113955,-108060,40261,316677,165690,-114212,227678,-118481,-114264,66198,232681,40029
1033141,-113971,-108067,40227,316612,165925,-114220,227671,-118492,-114275,66192,232733,39991
1033142,-113977,-108064,40219,316607,166031,-114220,227677,-118479,-114274,66186,232748,39981
1033143,-113973,-108056,40220,316599,166081,-114197,227693,-118457,-114250,66207,232842,39986
1033144,-113954,-108034,40230,316630,166094,-114182,227728,-118442,-114234,66239,232915,39995
1033145,-113925,-108022,40228,316717,166075,-114156,227777,-118410,-114209,66273,232937,39995
1033146,-113905,-107977,40252,316795,166047,-114157,227844,-118383,-114214,66328,232921,40015
1033147,-113911,-107929,40317,316836,165997,-114111,227922,-118343,-114166,66390,232906,40081
1033148,-113897,-107881,40333,316868,166077,-114092,227970,-118320,-114148,66407,232890,40099
1033149,-113883,-107866,40302,316936,166176,-114101,227955,-118333,-114153,66392,233007,40066
1033150,-113847,-107855,40321,317032,166245,-114104,227923,-118353,-114154,66347,232983,40088
1033151,-113863,-107874,40308,317044,166283,-114095,227854,-118367,-114146,66359,232953,40071
1033152,-113867,-107891,40332,317048,166270,-114142,227792,-118408,-114194,66329,232951,40098
1033153,-113862,-107910,40323,317024,166202,-114166,227726,-118449,-114220,66277,232934,40090
1033154,-113865,-107935,40308,316942,166066,-114197,227671,-118462,-114250,66239,232957,40075
1033155,-113874,-107958,40277,316849,165986,-114207,227620,-118452,-114262,66215,232915,40042
1033156,-113912,-107970,40271,316832,165969,-114204,227579,-118472,-114256,66232,232790,40038
1033157,-113969,-107989,40237,316841,165970,-114198,227502,-118482,-114251,66264,232766,40003
1033158,-114019,-107997,40270,316831,165984,-114243,227397,-118480,-114295,66268,232825,40037
1033159,-114021,-107995,40279,316782,165972,-114238,227352,-118511,-114292,66183,232868,40043
1033160,-114001,-107988,40306,316753,165953,-114243,227363,-118523,-114294,66170,232890,40071
1033161,-113981,-107960,40309,316764,165905,-114231,227398,-118520,-114285,66216,232887,40074
1033162,-113973,-107945,40361,316781,165858,-114211,227440,-118504,-114265,66285,232856,40125
1033163,-113965,-107941,40360,316815,165972,-114181,227424,-118476,-114232,66297,232848,40124
1033164,-114005,-107934,40366,316819,166059,-114149,227525,-118454,-114200,66279,232895,40134
1033165,-114012,-107914,40380,316860,166095,-114130,227621,-118421,-114183,66267,232949,40147
1033166,-113987,-107883,40419,316916,166094,-114105,227665,-118399,-114157,66303,232926,40181
1033167,-113894,-107839,40470,316953,166102,-114094,227733,-118380,-114145,66329,232918,40233
1033168,-113813,-107820,40487,316895,166075,-114087,227813,-118366,-114141,66366,232982,40252
1033169,-113757,-107808,40504,316907,166074,-114071,227818,-118346,-114123,66382,232992,40269
1033170,-113704,-107780,40569,316941,166146,-114065,227726,-118317,-114118,66397,232843,40333
1033171,-113728,-107794,40563,316937,166224,-114095,227590,-118325,-114145,66453,232871,40327
1033172,-113769,-107818,40544,316908,166247,-114128,227562,-118349,-114185,66451,232884,40309
1033173,-113847,-107834,40497,316914,166205,-114159,227546,-118399,-114211,66424,232906,40262
1033174,-113886,-107864,40450,316946,166144,-114164,227496,-118429,-114219,66329,232915,40217
1033175,-113928,-107885,40411,316944,166100,-114181,227479,-118435,-114235,66294,232869,40174
1033176,-113955,-107923,40374,316845,166000,-114217,227614,-118489,-114269,66295,232867,40140
1033177,-113977,-107957,40347,316802,165901,-114214,227633,-118510,-114268,66279,232861,40109
1033178,-114008,-107971,40352,316811,165853,-114200,227624,-118514,-114255,66256,232824,40119
1033179,-114035,-107986,40364,316767,165795,-114228,227606,-118531,-114279,66253,232898,40128
1033180,-114005,-107969,40401,316752,165721,-114219,227569,-118512,-114273,66261,232911,40165
1033181,-113984,-107952,40414,316767,165869,-114216,227554,-118515,-114268,66233,232844,40175
1033182,-113983,-107939,40397,316820,166001,-114199,227566,-118503,-114256,66200,232795,40162
1033183,-114011,-107932,40390,316871,165997,-114164,227627,-118480,-114213,66235,232864,40159
1033184,-114021,-107898,40415,316899,166031,-114114,227633,-118459,-114169,66270,232916,40180
1033185,-114002,-107889,40408,316916,166150,-114091,227590,-118445,-114146,66329,232971,40175
1033186,-113951,-107869,40454,316990,166201,-114110,227585,-118451,-114162,66342,232996,40219
1033187,-113909,-107846,40490,317116,166160,-114107,227676,-118462,-114158,66380,233034,40258
1033188,-113865,-107815,40525,317199,166056,-114083,227783,-118430,-114135,66432,232979,40292
1033189,-113776,-107803,40529,317152,165990,-114049,227857,-118392,-114104,66477,232982,40295
1033190,-113763,-107818,40478,317046,166153,-114054,227886,-118383,-114105,66483,232983,40247
1033191,-113772,-107827,40445,316964,166217,-114057,227882,-118381,-114110,66462,233041,40211
1033192,-113818,-107836,40435,316967,166109,-114083,227859,-118398,-114136,66410,233131,40199
1033193,-113822,-107875,40434,316941,166050,-114125,227812,-118436,-114179,66316,233132,40202
1033194,-113814,-107890,40503,316891,166124,-114161,227737,-118466,-114212,66279,232840,40268
1033195,-113855,-107913,40512,316848,166215,-114176,227648,-118482,-114229,66250,232636,40282
1033196,-113900,-107939,40508,316877,166234,-114198,227522,-118497,-114251,66222,232620,40274
1033197,-113942,-107957,40500,316906,166263,-114226,227338,-118523,-114281,66159,232675,40262
1033198,-113979,-107969,40465,316922,166257,-114212,227246,-118529,-114266,66135,232716,40232
1033199,-114005,-107979,40450,316918,166227,-114238,227272,-118549,-114290,66108,232729,40215
1033200,-114011,-108003,40411,316938,166252,-114279,227314,-118544,-114335,66084,232796,40178
1033201,-114051,-108013,40386,316937,166209,-114278,227491,-118511,-114328,66152,232791,40150
1033202,-114040,-107997,40410,316922,166081,-114254,227598,-118479,-114309,66184,232760,40174
1033203,-113992,-107983,40403,316944,165999,-114247,227646,-118467,-114299,66177,232903,40169
1033204,-114001,-107970,40380,317001,165962,-114222,227685,-118474,-114275,66183,233010,40143
1033205,-113958,-107944,40380,317038,165966,-114194,227710,-118452,-114246,66244,233000,40146
1033206,-113911,-107906,40410,317049,165978,-114147,227722,-118424,-114202,66316,232985,40174
1033207,-113875,-107885,40458,317000,166008,-114112,227782,-118402,-114169,66378,233070,40220
1033208,-113871,-107896,40450,316897,166120,-114094,227844,-118399,-114147,66443,233127,40214
1033209,-113832,-107899,40484,316877,166203,-114098,227856,-118390,-114150,66466,233218,40251
1033210,-113810,-107891,40529,316934,166222,-114113,227811,-118398,-114166,66427,233255,40293
1033211,-113785,-107891,40528,316974,166202,-114123,227724,-118395,-114176,66411,233212,40293
1033212,-113817,-107907,40506,316953,166229,-114125,227723,-118422,-114179,66372,233134,40272
1033213,-113913,-107924,40503,316978,166189,-114137,227664,-118448,-114191,66341,233014,40267
1033214,-113984,-107926,40521,316938,166121,-114135,227572,-118450,-114187,66339,232923,40287
1033215,-114004,-107951,40483,316840,166010,-114164,227635,-118490,-114220,66353,232844,40249
1033216,-113970,-107986,40434,316772,165926,-114210,227746,-118554,-114263,66344,232829,40197
1033217,-113983,-107997,40376,316777,165916,-114242,227662,-118581,-114294,66257,232892,40145
1033218,-113959,-107988,40369,316796,165824,-114239,227558,-118566,-114292,66228,232916,40137
1033219,-113970,-107987,40335,316846,165824,-114257,227493,-118576,-114312,66221,232883,40100
1033220,-113989,-107977,40338,316891,165902,-114291,227488,-118597,-114344,66215,232833,40103
1033221,-113969,-107957,40345,316931,165934,-114278,227498,-118572,-114334,66239,232731,40113
1033222,-113959,-107944,40379,316922,165911,-114280,227525,-118533,-114334,66264,232685,40144
1033223,-113947,-107917,40415,316926,165853,-114260,227589,-118507,-114313,66315,232744,40180
1033224,-113933,-107904,40423,316959,165864,-114274,227656,-118502,-114327,66277,232844,40188
1033225,-113908,-107893,40428,316904,165964,-114244,227735,-118497,-114297,66219,232956,40195
1033226,-113858,-107901,40425,316787,166046,-114169,227792,-118473,-114224,66270,232987,40190
1033227,-113838,-107854,40443,316849,166091,-114107,227812,-118432,-114161,66299,232987,40210
1033228,-113844,-107827,40476,317033,166133,-114099,227783,-118426,-114149,66286,233026,40240
1033229,-113796,-107810,40495,317120,166174,-114098,227798,-118434,-114150,66233,233063,40263
1033230,-113757,-107805,40498,317089,166156,-114071,227831,-118405,-114122,66282,233011,40264
1033231,-113754,-107833,40488,317031,166229,-114107,227843,-118431,-114160,66356,232912,40254
1033232,-113765,-107843,40507,317052,166282,-114160,227772,-118481,-114213,66342,232845,40271
1033233,-113766,-107852,40507,317066,166286,-114205,227656,-118508,-114260,66258,232773,40270
1033234,-113829,-107891,40474,316992,166278,-114235,227612,-118520,-114290,66198,232765,40239
1033235,-113898,-107924,40439,316979,166233,-114260,227580,-118553,-114314,66216,232739,40203
1033236,-113916,-107941,40441,316962,166245,-114316,227547,-118584,-114371,66186,232694,40208
1033237,-113927,-107942,40440,316882,166089,-114318,227519,-118575,-114368,66208,232675,40205
1033238,-113944,-107944,40404,316837,165979,-114318,227485,-118576,-114372,66210,232774,40167
1033239,-113979,-107955,40376,316742,165990,-114340,227506,-118586,-114390,66190,232790,40139
1033240,-114020,-107961,40348,316681,166051,-114310,227535,-118573,-114363,66200,232815,40115
1033241,-114024,-107949,40334,316702,165997,-114284,227538,-118557,-114336,66227,232890,40099
1033242,-114032,-107943,40348,316764,165904,-114245,227600,-118531,-114299,66249,232860,40113
1033243,-114013,-107943,40423,316833,165894,-114219,227647,-118511,-114272,66285,232855,40187
1033244,-113984,-107957,40424,316829,165990,-114203,227662,-118513,-114256,66310,232921,40187
1033245,-113937,-107951,40426,316863,166052,-114180,227689,-118496,-114231,66341,233010,40192
1033246,-113918,-107932,40421,316942,166123,-114170,227718,-118486,-114224,66347,233044,40186
1033247,-113896,-107899,40436,317013,166165,-114145,227763,-118461,-114198,66375,233083,40197
1033248,-113869,-107871,40480,317010,166198,-114121,227743,-118454,-114172,66394,233119,40245
1033249,-113793,-107823,40526,317040,166199,-114086,227719,-118408,-114139,66404,233062,40292
1033250,-113766,-107809,40560,317081,166160,-114051,227677,-118386,-114103,66416,233019,40323
1033251,-113807,-107812,40575,317092,166150,-114067,227681,-118384,-114121,66444,232961,40341
1033252,-113854,-107841,40565,317074,166114,-114080,227706,-118388,-114135,66429,232904,40330
1033253,-113910,-107870,40522,317034,166111,-114105,227713,-118398,-114159,66388,232836,40286
1033254,-113943,-107902,40476,316916,166039,-114115,227753,-118428,-114170,66328,232830,40241
1033255,-113959,-107922,40435,316879,166006,-114147,227734,-118467,-114200,66260,232855,40204
1033256,-113960,-107940,40429,316871,165942,-114159,227669,-118496,-114212,66245,232815,40195
1033257,-113977,-107959,40416,316815,165925,-114161,227584,-118505,-114213,66238,232775,40181
1033258,-114007,-107962,40406,316751,165916,-114169,227489,-118495,-114223,66302,232800,40173
1033259,-114042,-107958,40420,316683,165902,-114181,227412,-118497,-114233,66307,232847,40186
1033260,-114038,-107962,40399,316689,165842,-114184,227385,-118476,-114237,66322,232973,40166
1033261,-114001,-107933,40367,316732,165832,-114164,227299,-118448,-114219,66339,233035,40131
1033262,-113955,-107924,40319,316779,165812,-114133,227232,-118423,-114186,66393,233054,40085
1033263,-113948,-107907,40345,316821,165905,-114126,227311,-118423,-114178,66410,233017,40109
1033264,-113962,-107908,40351,316901,166050,-114131,227471,-118437,-114187,66391,232958,40113
1033265,-113947,-107880,40392,316972,166076,-114142,227642,-118440,-114198,66361,232959,40157
1033266,-113909,-107862,40438,317038,166037,-114156,227772,-118427,-114209,66306,233006,40203
1033267,-113844,-107834,40500,317108,166112,-114142,227837,-118398,-114197,66281,232946,40265
1033268,-113791,-107802,40498,317140,166180,-114102,227866,-118387,-114155,66311,232913,40264
1033269,-113786,-107802,40537,317165,166185,-114058,227873,-118336,-114110,66388,232888,40306
1033270,-113837,-107787,40534,317112,166222,-114013,227916,-118299,-114066,66422,232873,40300
1033271,-113883,-107757,40568,317056,166287,-114035,227916,-118298,-114089,66382,232839,40330
1033272,-113896,-107762,40616,316997,166293,-114077,227912,-118320,-114129,66342,232766,40383
1033273,-113877,-107767,40633,316939,166216,-114111,227829,-118352,-114166,66304,232718,40397
1033274,-113880,-107792,40620,316933,166167,-114126,227677,-118381,-114182,66245,232682,40386
1033275,-113912,-107814,40564,316906,166157,-114100,227512,-118392,-114150,66213,232757,40334
1033276,-113946,-107834,40533,316953,166106,-114079,227433,-118399,-114132,66166,232754,40296
1033277,-113990,-107874,40510,316956,166056,-114099,227481,-118432,-114154,66144,232673,40275
1033278,-113996,-107893,40494,316963,165948,-114116,227504,-118426,-114171,66201,232676,40258
1033279,-114046,-107924,40497,316891,165854,-114157,227537,-118452,-114210,66270,232782,40262
1033280,-114061,-107928,40484,316889,165843,-114224,227546,-118448,-114277,66251,232953,40243
1033281,-114035,-107902,40489,316894,165888,-114317,227630,-118449,-114373,66267,232955,40254
1033282,-114015,-107914,40490,316881,165919,-114305,227692,-118429,-114358,66339,232951,40255
1033283,-113996,-107921,40483,316859,165938,-114266,227728,-118391,-114316,66341,233052,40247
1033284,-113946,-107911,40472,316848,165994,-114199,227759,-118387,-114252,66310,233118,40237
1033285,-113914,-107904,40463,316892,166049,-114132,227783,-118363,-114186,66344,233089,40227
1033286,-113891,-107870,40494,316949,166122,-114088,227760,-118358,-114141,66382,233039,40260
1033287,-113886,-107839,40525,316996,166239,-114026,227729,-118358,-114077,66450,233105,40293
1033288,-113852,-107809,40564,317039,166298,-113996,227670,-118345,-114052,66492,233140,40329
1033289,-113827,-107814,40589,317057,166346,-113953,227695,-118304,-114008,66556,233120,40355
1033290,-113820,-107818,40626,317056,166344,-113940,227727,-118292,-113993,66574,233115,40390
1033291,-113825,-107815,40626,317040,166259,-113954,227790,-118310,-114007,66539,233141,40393
1033292,-113835,-107837,40606,317027,166173,-113966,227828,-118324,-114021,66528,233053,40369
1033293,-113853,-107874,40571,317003,166106,-113973,227829,-118325,-114028,66532,232884,40337
1033294,-113897,-107896,40540,316947,166101,-113995,227782,-118367,-114049,66506,232836,40303
1033295,-113908,-107915,40497,316915,166088,-114057,227720,-118408,-114111,66435,232839,40262
1033296,-113931,-107923,40478,316844,166074,-114085,227679,-118423,-114139,66347,232901,40240
1033297,-113954,-107939,40467,316807,165982,-114093,227643,-118432,-114143,66308,232919,40233
1033298,-113974,-107940,40475,316783,165911,-114096,227624,-118430,-114148,66311,232944,40241
1033299,-113989,-107935,40448,316824,165782,-114126,227599,-118436,-114182,66310,232961,40214
1033300,-113986,-107938,40447,316870,165724,-114144,227594,-118445,-114200,66300,233017,40209
1033301,-113986,-107932,40430,316870,165728,-114136,227594,-118439,-114192,66306,233085,40193
1033302,-113990,-107941,40442,316849,165790,-114119,227572,-118442,-114172,66343,233144,40209
1033303,-113956,-107915,40459,316864,165832,-114083,227560,-118405,-114135,66351,233185,40224
1033304,-113919,-107904,40442,316864,165903,-114042,227566,-118370,-114097,66381,233182,40205
1033305,-113902,-107899,40438,316863,166011,-114045,227677,-118347,-114096,66413,233121,40202
1033306,-113841,-107870,40503,316950,166143,-114048,227690,-118327,-114101,66427,232982,40270
1033307,-113815,-107828,40552,317051,166306,-114027,227724,-118293,-114082,66409,232840,40316
1033308,-113766,-107811,40597,317117,166438,-114052,227715,-118311,-114105,66337,232880,40361
1033309,-113749,-107809,40646,317170,166493,-114061,227766,-118322,-114114,66336,232907,40414
1033310,-113752,-107803,40649,317229,166378,-114057,227853,-118354,-114105,66360,232948,40414
1033311,-113787,-107824,40628,317238,166301,-114033,227887,-118358,-114085,66338,232939,40397
1033312,-113844,-107818,40611,317241,166333,-114071,227842,-118381,-114122,66281,232957,40374
1033313,-113918,-107828,40565,317155,166279,-114128,227836,-118405,-114182,66292,232931,40332
1033314,-113931,-107843,40514,317054,166202,-114154,227810,-118430,-114203,66281,232883,40280
1033315,-113961,-107866,40478,316987,166116,-114176,227726,-118458,-114231,66316,232963,40245
1033316,-113959,-107895,40433,316979,166077,-114201,227717,-118493,-114254,66278,232969,40199
1033317,-114002,-107927,40403,316918,166034,-114178,227733,-118498,-114231,66269,232923,40169
1033318,-114042,-107921,40420,316906,166019,-114173,227724,-118529,-114228,66270,232851,40185
1033319,-114042,-107932,40425,316877,165992,-114198,227679,-118551,-114251,66263,232856,40190
1033320,-114010,-107936,40429,316802,165963,-114191,227590,-118538,-114246,66270,232944,40194
1033321,-113963,-107942,40439,316786,165884,-114126,227511,-118488,-114179,66308,232970,40205
1033322,-113938,-107922,40452,316872,165796,-114086,227451,-118449,-114141,66355,233001,40217
1033323,-113893,-107939,40448,316858,165791,-114059,227524,-118445,-114111,66384,233038,40211
1033324,-113863,-107921,40445,316855,165836,-114049,227628,-118440,-114101,66401,233068,40211
1033325,-113871,-107939,40441,316790,166074,-114049,227745,-118455,-114102,66412,233101,40206
1033326,-113827,-107918,40470,316840,166135,-114043,227745,-118443,-114094,66439,233073,40236
1033327,-113774,-107893,40488,316917,166170,-113999,227720,-118395,-114048,66484,233114,40253
1033328,-113722,-107847,40467,317057,166162,-114006,227779,-118387,-114061,66465,233035,40228
1033329,-113689,-107809,40472,317138,166215,-114023,227801,-118380,-114076,66482,233022,40235
1033330,-113706,-107815,40470,317117,166313,-114032,227794,-118382,-114085,66488,233050,40234
1033331,-113752,-107848,40467,316960,166395,-114056,227809,-118393,-114109,66469,233148,40232
1033332,-113788,-107860,40505,316920,166392,-114071,227822,-118434,-114128,66435,233113,40267
1033333,-113803,-107859,40557,316995,166389,-114142,227754,-118487,-114194,66350,232933,40320
1033334,-113810,-107883,40553,317041,166381,-114170,227655,-118541,-114222,66250,232840,40318
1033335,-113844,-107887,40527,317052,166245,-114191,227630,-118567,-114247,66214,232783,40290
1033336,-113867,-107889,40488,317053,166080,-114207,227645,-118567,-114262,66165,232762,40254
1033337,-113862,-107873,40446,316963,165954,-114210,227592,-118567,-114259,66156,232722,40214
1033338,-113861,-107862,40422,316899,165910,-114195,227551,-118552,-114250,66180,232641,40185
1033339,-113860,-107865,40428,316881,165915,-114185,227601,-118546,-114240,66196,232374,40194
1033340,-113911,-107908,40363,316909,165921,-114189,227668,-118548,-114243,66231,232383,40131
1033341,-113942,-107929,40394,316979,166096,-114227,227616,-118600,-114281,66151,232557,40158
1033342,-113949,-107932,40405,316999,166069,-114246,227648,-118618,-114297,66146,232746,40170
1033343,-113931,-107917,40391,316996,166006,-114237,227722,-118606,-114292,66230,232858,40157
1033344,-113917,-107903,40439,316968,166006,-114259,227727,-118603,-114311,66257,232992,40205
1033345,-113894,-107888,40463,316870,166035,-114221,227751,-118561,-114274,66286,233111,40228
1033346,-113862,-107882,40448,316842,166092,-114192,227739,-118544,-114243,66362,233181,40214
1033347,-113809,-107867,40452,316920,166168,-114159,227688,-118511,-114213,66418,233237,40217
1033348,-113782,-107855,40468,316972,166221,-114147,227708,-118501,-114201,66425,233246,40230
1033349,-113778,-107834,40485,317047,166237,-114131,227777,-118469,-114184,66422,233260,40251
1033350,-113797,-107824,40495,317092,166282,-114112,227841,-118449,-114164,66419,233166,40258
1033351,-113801,-107843,40466,317081,166353,-114107,227808,-118445,-114160,66425,233057,40231
1033352,-113788,-107849,40466,317069,166344,-114118,227689,-118452,-114170,66413,232982,40230
1033353,-113827,-107870,40468,317090,166291,-114153,227613,-118479,-114207,66332,232951,40234
1033354,-113862,-107894,40471,317074,166302,-114200,227606,-118502,-114254,66165,232878,40236
1033355,-113912,-107911,40450,317059,166311,-114254,227575,-118533,-114305,66095,232859,40215
1033356,-113945,-107938,40400,316956,166255,-114259,227577,-118551,-114312,66105,232905,40165
1033357,-113952,-107954,40337,316872,166085,-114236,227571,-118561,-114292,66097,232972,40102
1033358,-113973,-107961,40318,316838,165975,-114197,227518,-118547,-114250,66117,233022,40084
1033359,-114002,-107976,40286,316803,165982,-114179,227497,-118544,-114233,66141,232983,40052
1033360,-114035,-108002,40270,316771,165999,-114151,227503,-118553,-114205,66228,232962,40034
1033361,-114018,-107988,40293,316787,165961,-114112,227518,-118530,-114165,66294,232919,40059
1033362,-114002,-107983,40317,316780,165968,-114116,227547,-118505,-114170,66333,232917,40085
1033363,-113971,-107977,40310,316783,165973,-114102,227587,-118495,-114158,66370,232970,40075
1033364,-113959,-107967,40314,316826,165932,-114072,227649,-118459,-114124,66405,233038,40079
1033365,-113921,-107979,40336,316876,165916,-114044,227727,-118439,-114099,66418,233037,40101
1033366,-113894,-107953,40356,316907,165899,-114012,227796,-118415,-114065,66416,233081,40121
1033367,-113851,-107921,40410,316963,165967,-114009,227845,-118401,-114063,66427,233117,40172
1033368,-113848,-107893,40426,317015,165998,-113969,227893,-118375,-114018,66452,233094,40194
1033369,-113861,-107856,40431,317056,165944,-113937,227920,-118339,-113990,66503,233111,40199
1033370,-113832,-107845,40444,317046,165944,-113929,227928,-118334,-113981,66527,233130,40211
1033371,-113808,-107849,40442,316889,166023,-113934,227922,-118325,-113988,66567,233010,40209
1033372,-113818,-107858,40487,316780,166025,-113955,227870,-118343,-114008,66557,232970,40252
1033373,-113816,-107854,40540,316849,165938,-114023,227764,-118407,-114076,66442,232905,40305
1033374,-113867,-107873,40535,316888,165956,-114042,227654,-118425,-114094,66400,232792,40300
1033375,-113922,-107898,40465,316894,165965,-114060,227626,-118427,-114112,66361,232720,40231
1033376,-113963,-107935,40401,316855,166026,-114096,227591,-118466,-114151,66329,232737,40166
1033377,-114004,-107958,40373,316895,166035,-114140,227479,-118483,-114192,66257,232780,40138
1033378,-114012,-107964,40363,316926,166090,-114178,227450,-118498,-114232,66231,232754,40128
1033379,-114023,-107987,40339,316882,166105,-114198,227425,-118528,-114247,66232,232751,40104
1033380,-114050,-107985,40332,316882,166158,-114191,227468,-118542,-114246,66239,232735,40097
1033381,-114018,-107976,40331,316912,166193,-114189,227517,-118550,-114244,66223,232724,40096
1033382,-113993,-107975,40360,316881,166230,-114207,227566,-118550,-114260,66220,232772,40123
1033383,-113950,-107964,40382,316856,166234,-114185,227608,-118542,-114237,66256,232846,40146
1033384,-113927,-107958,40419,316901,166264,-114174,227635,-118528,-114224,66256,232869,40186
1033385,-113925,-107938,40466,316990,166230,-114147,227687,-118498,-114200,66290,232904,40233
1033386,-113886,-107904,40508,317038,166222,-114126,227727,-118450,-114177,66252,232906,40274
1033387,-113841,-107873,40546,317122,166267,-114111,227773,-118444,-114163,66269,232921,40314
1033388,-113828,-107862,40565,317176,166223,-114080,227772,-118430,-114133,66338,233011,40329
1033389,-113788,-107848,40587,317196,166262,-114027,227713,-118380,-114079,66423,232976,40355
1033390,-113763,-107824,40622,317210,166325,-114046,227664,-118380,-114098,66425,232945,40385
1033391,-113758,-107797,40650,317234,166365,-114091,227607,-118411,-114147,66308,232961,40416
1033392,-113797,-107827,40636,317207,166348,-114128,227611,-118440,-114182,66290,233001,40400
1033393,-113837,-107842,40590,317111,166233,-114167,227648,-118469,-114220,66271,233026,40356
1033394,-113857,-107851,40546,317034,166069,-114213,227656,-118491,-114265,66296,233042,40310
1033395,-113890,-107883,40488,316979,165925,-114241,227655,-118497,-114294,66348,233051,40252
1033396,-113945,-107887,40414,316902,165834,-114227,227671,-118482,-114280,66356,233029,40181
1033397,-113980,-107899,40392,316796,165793,-114207,227672,-118473,-114260,66322,232954,40156
1033398,-113994,-107923,40357,316756,165787,-114195,227636,-118483,-114249,66315,232945,40122
1033399,-113996,-107949,40388,316737,165772,-114177,227546,-118519,-114229,66329,232965,40150
1033400,-113983,-107949,40385,316782,165760,-114189,227503,-118538,-114244,66326,232948,40152
1033401,-113972,-107936,40464,316849,165815,-114192,227553,-118535,-114247,66321,232853,40230
1033402,-113969,-107933,40484,316809,165931,-114174,227546,-118522,-114229,66288,232864,40247
1033403,-113950,-107936,40526,316810,166028,-114177,227562,-118507,-114229,66276,232915,40289
1033404,-113911,-107911,40557,316895,166077,-114188,227618,-118531,-114238,66270,232930,40321
1033405,-113939,-107901,40570,317010,166109,-114169,227692,-118540,-114227,66328,232910,40336
1033406,-113979,-107881,40595,317080,166208,-114163,227712,-118545,-114217,66388,232952,40361
1033407,-113952,-107860,40634,317141,166289,-114133,227717,-118518,-114187,66397,232968,40396
1033408,-113865,-107824,40645,317224,166283,-114127,227721,-118503,-114184,66381,232942,40407
1033409,-113800,-107775,40680,317342,166310,-114114,227735,-118497,-114170,66350,232890,40443
1033410,-113787,-107768,40682,317348,166282,-114098,227800,-118467,-114153,66347,232852,40448
1033411,-113816,-107788,40648,317288,166204,-114100,227859,-118464,-114156,66385,232839,40414
1033412,-113835,-107821,40640,317209,166199,-114116,227831,-118475,-114168,66359,232908,40406
1033413,-113867,-107847,40567,317114,166185,-114169,227792,-118534,-114222,66291,233038,40334
1033414,-113887,-107896,40531,316982,166192,-114222,227806,-118581,-114276,66259,233050,40295
1033415,-113874,-107929,40509,316903,166186,-114228,227698,-118604,-114281,66260,233008,40275
1033416,-113844,-107924,40516,316934,166125,-114217,227557,-118594,-114274,66221,232834,40276
1033417,-113856,-107927,40511,316991,166114,-114250,227481,-118599,-114301,66204,232731,40275
1033418,-113893,-107933,40495,316989,166133,-114278,227465,-118600,-114328,66169,232662,40261
1033419,-113921,-107940,40521,316931,166073,-114286,227504,-118594,-114343,66171,232589,40285
1033420,-113905,-107920,40531,316928,165962,-114247,227533,-118546,-114302,66203,232453,40293
1033421,-113884,-107893,40557,316981,165855,-114224,227642,-118510,-114276,66181,232342,40327
1033422,-113850,-107880,40566,316973,165745,-114242,227736,-118536,-114294,66176,232457,40335
1033423,-113852,-107884,40528,316925,165765,-114235,227757,-118544,-114288,66214,232680,40290
1033424,-113841,-107879,40490,316905,165813,-114247,227813,-118551,-114303,66202,232801,40254
1033425,-113832,-107871,40465,316889,166003,-114226,227823,-118567,-114278,66233,232869,40232
1033426,-113821,-107857,40432,316928,166147,-114209,227816,-118545,-114263,66252,232893,40197
1033427,-113778,-107823,40470,317015,166106,-114188,227858,-118514,-114242,66296,232935,40234
1033428,-113776,-107802,40531,317024,166053,-114129,227835,-118461,-114185,66306,233017,40294
1033429,-113748,-107779,40613,317038,166003,-114129,227741,-118426,-114181,66323,233163,40377
1033430,-113680,-107780,40683,317081,165995,-114138,227710,-118438,-114191,66308,233137,40450
1033431,-113697,-107778,40673,317080,165957,-114133,227782,-118443,-114191,66331,233032,40438
1033432,-113704,-107825,40599,317091,165969,-114160,227842,-118470,-114213,66316,232957,40363
1033433,-113754,-107855,40502,316978,166073,-114257,227818,-118550,-114313,66254,233080,40266
1033434,-113812,-107885,40428,316881,166072,-114289,227782,-118588,-114343,66189,233143,40193
1033435,-113853,-107892,40408,316861,166100,-114299,227745,-118613,-114352,66187,232983,40172
1033436,-113869,-107906,40385,316804,166142,-114282,227700,-118607,-114333,66145,232851,40149
1033437,-113902,-107922,40432,316782,166144,-114317,227593,-118640,-114369,66093,232809,40194
1033438,-113911,-107926,40455,316828,166182,-114321,227435,-118644,-114375,66094,232801,40218
1033439,-113961,-107949,40488,316845,166166,-114315,227387,-118659,-114368,66121,232728,40251
1033440,-113968,-107956,40513,316941,166170,-114336,227427,-118663,-114389,66088,232616,40277
1033441,-113952,-107957,40517,316999,166201,-114338,227484,-118639,-114388,66044,232613,40283
1033442,-113934,-107941,40525,317050,166211,-114356,227504,-118649,-114414,66061,232588,40290
1033443,-113940,-107930,40530,317039,166184,-114334,227567,-118637,-114384,66114,232657,40298
1033444,-113932,-107918,40527,317002,166181,-114292,227635,-118621,-114345,66189,232786,40294
1033445,-113934,-107905,40556,317042,166232,-114251,227630,-118606,-114303,66242,232856,40320
1033446,-113871,-107874,40565,317077,166252,-114220,227566,-118605,-114274,66301,232912,40329
1033447,-113863,-107849,40604,317126,166294,-114195,227614,-118594,-114248,66347,233022,40368
1033448,-113837,-107825,40631,317131,166308,-114196,227675,-118578,-114247,66325,233097,40394
1033449,-113800,-107815,40667,317143,166310,-114163,227733,-118553,-114215,66363,233144,40432
1033450,-113769,-107796,40680,317190,166256,-114150,227691,-118538,-114204,66392,233171,40444
1033451,-113760,-107786,40676,317176,166217,-114174,227680,-118561,-114226,66396,233143,40439
1033452,-113767,-107805,40642,317126,166180,-114231,227796,-118599,-114286,66396,233064,40405
1033453,-113775,-107837,40583,317049,166159,-114260,227763,-118629,-114315,66394,233038,40348
1033454,-113782,-107850,40558,317004,166164,-114309,227677,-118662,-114363,66339,232981,40325
1033455,-113801,-107870,40557,317016,166220,-114342,227631,-118700,-114397,66238,232920,40322
1033456,-113816,-107880,40531,316984,166130,-114345,227596,-118702,-114398,66209,232895,40295
1033457,-113847,-107890,40539,316960,166022,-114351,227500,-118696,-114405,66192,232906,40305
1033458,-113867,-107867,40568,316935,165991,-114348,227354,-118695,-114402,66204,232914,40333
1033459,-113909,-107885,40568,316852,165973,-114332,227372,-118684,-114386,66191,232886,40331
1033460,-113905,-107854,40569,316733,165849,-114293,227428,-118643,-114344,66233,232834,40338
1033461,-113848,-107837,40557,316771,165730,-114264,227526,-118603,-114318,66267,232738,40321
1033462,-113810,-107835,40564,316833,165785,-114275,227572,-118610,-114331,66246,232681,40329
1033463,-113759,-107825,40592,316921,165888,-114299,227614,-118618,-114353,66190,232660,40354
1033464,-113770,-107809,40634,317055,165921,-114325,227616,-118605,-114381,66213,232692,40401
1033465,-113772,-107818,40643,317140,166026,-114334,227686,-118620,-114387,66270,232739,40409
1033466,-113765,-107824,40625,317146,166025,-114294,227794,-118618,-114348,66308,232810,40391
1033467,-113730,-107778,40679,317175,166080,-114265,227861,-118604,-114318,66303,232827,40445
1033468,-113725,-107786,40680,317133,166167,-114236,227884,-118604,-114287,66299,232947,40444
1033469,-113748,-107785,40692,317168,166339,-114238,227918,-118615,-114294,66294,233045,40458
1033470,-113753,-107820,40680,317254,166447,-114246,227916,-118652,-114298,66270,233087,40447
1033471,-113781,-107840,40676,317323,166493,-114253,227869,-118661,-114308,66275,233085,40439
1033472,-113820,-107848,40653,317278,166478,-114268,227814,-118670,-114319,66252,233101,40419
1033473,-113845,-107855,40634,317143,166428,-114281,227743,-118652,-114333,66245,233042,40399
1033474,-113857,-107858,40619,317054,166375,-114290,227665,-118678,-114343,66244,232955,40382
1033475,-113880,-107868,40600,317007,166314,-114322,227617,-118690,-114375,66223,232912,40367
1033476,-113897,-107897,40575,316994,166268,-114343,227586,-118710,-114396,66195,232906,40339
1033477,-114003,-107914,40574,316987,166184,-114327,227522,-118712,-114379,66192,232858,40342
1033478,-114049,-107932,40576,316985,166096,-114305,227534,-118702,-114356,66211,232876,40340
1033479,-114082,-107935,40574,316978,166037,-114321,227562,-118706,-114373,66177,232849,40341
1033480,-114045,-107935,40551,316928,166019,-114320,227608,-118688,-114372,66201,232754,40317
1033481,-113993,-107916,40589,316938,166023,-114305,227624,-118657,-114358,66246,232687,40354
1033482,-113926,-107893,40609,316944,165987,-114280,227627,-118632,-114333,66238,232696,40373
1033483,-113888,-107875,40647,316953,166063,-114260,227618,-118603,-114314,66168,232707,40411
1033484,-113846,-107867,40675,317027,166188,-114241,227603,-118594,-114293,66145,232697,40441
1033485,-113827,-107867,40679,317071,166262,-114216,227600,-118556,-114269,66134,232751,40444
1033486,-113801,-107846,40685,317114,166270,-114191,227645,-118528,-114244,66193,232752,40450
1033487,-113767,-107814,40676,317117,166270,-114183,227692,-118492,-114237,66307,232809,40444
1033488,-113738,-107831,40662,317096,166242,-114170,227712,-118469,-114223,66367,232982,40428
1033489,-113726,-107836,40656,317019,166261,-114137,227787,-118429,-114190,66401,233095,40422
1033490,-113720,-107834,40683,317071,166298,-114105,227883,-118423,-114157,66413,232902,40450
1033491,-113726,-107839,40696,317131,166212,-114099,227934,-118421,-114152,66404,232776,40464
1033492,-113805,-107870,40681,317086,166155,-114116,227923,-118467,-114170,66390,232917,40447
1033493,-113847,-107906,40656,317032,166150,-114161,227842,-118505,-114215,66359,232990,40417
1033494,-113884,-107938,40610,316950,166093,-114195,227748,-118549,-114247,66359,233033,40377
1033495,-113902,-107961,40611,316932,166007,-114197,227654,-118563,-114251,66360,232984,40373
1033496,-113937,-107974,40593,316942,165980,-114212,227605,-118567,-114267,66316,232945,40357
1033497,-113965,-107989,40557,316965,166019,-114251,227537,-118600,-114307,66254,232905,40320
1033498,-113973,-107986,40547,317016,166114,-114269,227423,-118618,-114322,66236,232828,40313
1033499,-113959,-107972,40539,317022,166084,-114274,227344,-118606,-114326,66255,232741,40304
1033500,-113964,-107967,40544,316979,166061,-114216,227258,-118576,-114271,66309,232765,40307
1033501,-113957,-107959,40597,316975,166103,-114169,227184,-118513,-114219,66306,232738,40364
1033502,-113962,-107964,40612,316963,166110,-114163,227248,-118504,-114213,66302,232749,40378
1033503,-113996,-107985,40620,316957,166073,-114162,227409,-118476,-114218,66339,232819,40385
1033504,-113985,-107976,40627,316996,166062,-114154,227465,-118477,-114206,66363,232952,40392
1033505,-113957,-107973,40599,316969,165960,-114129,227568,-118470,-114182,66425,233128,40364
1033506,-113900,-107949,40600,316951,165880,-114135,227735,-118465,-114188,66454,233194,40364
1033507,-113870,-107930,40670,317032,165950,-114134,227797,-118473,-114185,66486,233253,40438
1033508,-113837,-107919,40702,317079,166068,-114156,227851,-118479,-114207,66465,233250,40467
1033509,-113825,-107888,40753,317044,166196,-114132,227875,-118488,-114185,66447,233297,40519
1033510,-113817,-107865,40824,317048,166338,-114146,227866,-118512,-114200,66406,233215,40587
1033511,-113849,-107867,40853,317086,166414,-114168,227832,-118523,-114219,66373,233111,40614
1033512,-113868,-107877,40836,317097,166385,-114177,227718,-118538,-114229,66410,233083,40602
1033513,-113886,-107896,40822,317107,166275,-114202,227580,-118545,-114254,66400,233070,40587
1033514,-113946,-107923,40798,317087,166261,-114232,227535,-118561,-114284,66382,232989,40562
1033515,-113976,-107935,40763,317010,166277,-114249,227505,-118579,-114302,66354,232927,40530
1033516,-113989,-107941,40761,316950,166198,-114257,227483,-118577,-114310,66322,232836,40526
1033517,-113994,-107961,40740,316976,166119,-114276,227489,-118592,-114330,66267,232711,40504
1033518,-113998,-107964,40710,316990,166114,-114273,227522,-118616,-114327,66193,232716,40474
1033519,-113995,-107972,40686,316951,166057,-114271,227538,-118619,-114327,66198,232656,40450
1033520,-113986,-107957,40707,317018,165987,-114265,227547,-118614,-114320,66174,232608,40471
1033521,-113996,-107953,40720,317100,165929,-114251,227569,-118600,-114303,66171,232632,40485
1033522,-113999,-107949,40723,317103,165969,-114239,227567,-118595,-114291,66215,232620,40489
1033523,-113992,-107952,40707,317017,166074,-114211,227637,-118582,-114263,66277,232678,40473
1033524,-113969,-107942,40728,316909,166028,-114154,227696,-118558,-114209,66322,232828,40491
1033525,-113924,-107936,40743,316851,165957,-114125,227719,-118514,-114180,66345,233015,40507
1033526,-113908,-107911,40777,316940,166031,-114125,227603,-118497,-114180,66372,233130,40542
1033527,-113871,-107896,40783,316998,166147,-114128,227546,-118471,-114180,66365,233252,40546
1033528,-113860,-107872,40798,317103,166261,-114149,227550,-118440,-114200,66354,233231,40563
1033529,-113844,-107858,40826,317171,166360,-114145,227595,-118417,-114198,66371,233182,40591
1033530,-113845,-107861,40845,317204,166439,-114129,227595,-118421,-114181,66357,233141,40608
1033531,-113839,-107869,40827,317197,166500,-114112,227649,-118444,-114163,66296,233076,40596
1033532,-113871,-107886,40825,317187,166436,-114125,227757,-118486,-114178,66270,232937,40589
1033533,-113882,-107905,40796,317139,166257,-114113,227758,-118508,-114167,66305,232851,40562
1033534,-113888,-107934,40774,317106,166037,-114154,227774,-118542,-114210,66289,232840,40541
1033535,-113904,-107934,40739,317111,165954,-114197,227766,-118588,-114253,66235,232809,40506
1033536,-113933,-107977,40699,316945,166142,-114225,227696,-118610,-114278,66224,232806,40465
1033537,-113959,-107986,40660,316898,166171,-114248,227630,-118635,-114302,66193,232815,40428
1033538,-113974,-107991,40646,316960,166081,-114272,227609,-118675,-114323,66174,232805,40412
1033539,-113981,-107997,40645,316986,165981,-114293,227578,-118685,-114346,66195,232766,40413
1033540,-113985,-107995,40650,317004,165914,-114285,227591,-118671,-114340,66199,232766,40414
1033541,-114002,-107983,40649,317027,166032,-114290,227538,-118658,-114343,66218,232793,40416
1033542,-114030,-107995,40575,316966,166149,-114251,227555,-118600,-114305,66252,232804,40341
1033543,-114033,-107973,40547,316976,166130,-114218,227668,-118554,-114275,66280,232790,40313
1033544,-113970,-107933,40594,317004,166138,-114223,227709,-118547,-114277,66311,232779,40358
1033545,-113910,-107926,40664,316963,166131,-114219,227744,-118511,-114271,66367,232780,40429
1033546,-113861,-107917,40721,316970,166209,-114224,227800,-118492,-114278,66348,232791,40485
1033547,-113788,-107874,40762,317034,166304,-114232,227825,-118498,-114285,66318,232808,40526
1033548,-113756,-107854,40756,317097,166361,-114191,227825,-118470,-114243,66356,232782,40522
1033549,-113734,-107847,40730,317168,166344,-114166,227867,-118458,-114221,66384,232849,40493
1033550,-113760,-107852,40722,317209,166313,-114150,227881,-118460,-114205,66384,232955,40486
1033551,-113780,-107863,40729,317200,166311,-114151,227852,-118463,-114206,66382,232924,40492
1033552,-113784,-107876,40709,317150,166242,-114116,227842,-118459,-114167,66399,232840,40474
1033553,-113814,-107907,40690,317081,166183,-114122,227840,-118492,-114175,66409,232766,40455
1033554,-113853,-107935,40655,317019,166121,-114156,227807,-118517,-114210,66382,232775,40422
1033555,-113922,-107955,40652,316935,166081,-114176,227748,-118548,-114229,66297,232856,40413
1033556,-114007,-107959,40638,316914,166053,-114209,227661,-118566,-114262,66250,232896,40402
1033557,-113998,-107980,40619,316904,166032,-114236,227516,-118565,-114290,66246,232837,40385
1033558,-113977,-107985,40613,316907,166054,-114260,227392,-118567,-114316,66218,232868,40376
1033559,-114005,-108003,40587,316876,166027,-114264,227434,-118558,-114318,66155,232850,40352
1033560,-114005,-108028,40581,316844,166020,-114260,227407,-118536,-114313,66165,232878,40347
1033561,-114007,-108029,40560,316838,166082,-114246,227386,-118532,-114299,66204,232929,40328
1033562,-113970,-108020,40571,316876,166133,-114251,227432,-118550,-114303,66187,232957,40337
1033563,-113951,-108029,40598,316952,166149,-114230,227524,-118538,-114284,66224,232908,40364
1033564,-113937,-108023,40611,316978,166153,-114193,227586,-118511,-114244,66261,232879,40377
1033565,-113892,-108006,40611,316974,166095,-114155,227627,-118460,-114207,66296,232922,40374
1033566,-113875,-107962,40640,316978,166057,-114142,227685,-118440,-114197,66345,232974,40404
1033567,-113843,-107939,40619,317035,166096,-114110,227776,-118417,-114163,66348,232973,40385
1033568,-113812,-107927,40622,317015,166181,-114089,227851,-118395,-114144,66339,233013,40388
1033569,-113792,-107910,40633,317048,166249,-114102,227956,-118399,-114156,66333,232999,40395
1033570,-113768,-107916,40655,317065,166218,-114113,227923,-118407,-114166,66336,233050,40418
1033571,-113756,-107905,40698,317050,166149,-114102,227894,-118405,-114155,66329,233075,40465
1033572,-113778,-107933,40713,317015,166157,-114125,227811,-118440,-114178,66329,233089,40477
1033573,-113843,-107994,40688,316947,166195,-114130,227734,-118479,-114181,66342,233085,40456
1033574,-113871,-108010,40628,316849,166167,-114141,227736,-118479,-114196,66353,232959,40397
1033575,-113912,-108025,40596,316844,166125,-114167,227702,-118483,-114216,66336,232850,40362
1033576,-113959,-108031,40560,316855,166063,-114194,227687,-118491,-114244,66328,232753,40328
1033577,-113967,-108045,40534,316839,165981,-114228,227683,-118498,-114283,66318,232718,40298
1033578,-113980,-108077,40518,316821,165982,-114262,227686,-118523,-114315,66306,232719,40284
1033579,-113988,-108081,40505,316757,165983,-114290,227676,-118528,-114343,66288,232722,40268
1033580,-113965,-108084,40493,316723,165902,-114269,227632,-118516,-114321,66269,232784,40257
1033581,-113945,-108072,40520,316811,165869,-114226,227565,-118512,-114279,66249,232850,40284
1033582,-113956,-108059,40538,316913,165843,-114200,227549,-118510,-114251,66239,232881,40305
1033583,-113950,-108068,40530,316918,165892,-114161,227606,-118467,-114213,66252,232875,40296
1033584,-113942,-108066,40513,316903,165947,-114145,227698,-118441,-114199,66275,232899,40279
1033585,-113918,-108054,40519,316926,165981,-114128,227779,-118438,-114182,66352,232883,40283
1033586,-113874,-108024,40552,316910,166012,-114113,227808,-118398,-114166,66413,232834,40317
1033587,-113818,-107994,40593,316951,166099,-114083,227862,-118372,-114135,66449,232779,40357
1033588,-113781,-107975,40628,317000,166137,-114061,227918,-118358,-114116,66455,232745,40397
1033589,-113758,-107963,40638,316998,166229,-114050,227946,-118343,-114104,66395,232839,40407
1033590,-113761,-107966,40601,317004,166286,-114070,227931,-118344,-114125,66393,232926,40367
1033591,-113786,-107971,40574,317025,166339,-114068,227821,-118356,-114122,66434,232892,40339
1033592,-113825,-107974,40534,316994,166330,-114061,227656,-118358,-114114,66461,232872,40298
1033593,-113827,-107990,40512,316964,166272,-114069,227467,-118379,-114122,66459,232898,40279
1033594,-113866,-108008,40518,316918,166115,-114074,227507,-118370,-114126,66409,232791,40284
1033595,-113899,-108045,40493,316817,165973,-114085,227602,-118381,-114135,66367,232747,40259
1033596,-113930,-108081,40456,316749,165857,-114082,227641,-118374,-114135,66370,232761,40222
1033597,-114004,-108111,40414,316724,165866,-114097,227571,-118404,-114151,66336,232829,40181
1033598,-114051,-108110,40407,316769,165824,-114111,227655,-118436,-114164,66288,232774,40172
1033599,-114079,-108120,40392,316780,165730,-114112,227655,-118457,-114167,66260,232778,40156
1033600,-114044,-108122,40369,316755,165706,-114083,227589,-118426,-114135,66255,232830,40135
1033601,-113999,-108141,40332,316680,165811,-114074,227518,-118401,-114130,66303,232931,40099
1033602,-113996,-108152,40292,316600,165920,-114068,227519,-118392,-114121,66334,233050,40057
1033603,-113980,-108159,40281,316582,165972,-114084,227589,-118377,-114138,66379,233115,40044
1033604,-113972,-108169,40299,316651,165981,-114067,227649,-118366,-114118,66428,233147,40065
1033605,-113946,-108147,40367,316733,165964,-114040,227677,-118349,-114089,66437,233095,40131
1033606,-113887,-108112,40454,316810,166026,-114012,227680,-118344,-114066,66414,233065,40218
1033607,-113841,-108089,40490,316852,166115,-113985,227758,-118318,-114039,66416,232999,40255
1033608,-113826,-108076,40513,316858,166229,-113974,227881,-118312,-114027,66434,232906,40275
1033609,-113791,-108046,40523,316940,166291,-113980,227913,-118331,-114035,66409,232963,40287
1033610,-113812,-108053,40525,316972,166316,-113987,227915,-118315,-114037,66422,232967,40292
1033611,-113825,-108063,40508,317004,166320,-114005,227938,-118349,-114058,66407,232962,40274
1033612,-113851,-108079,40482,317005,166299,-114009,227897,-118363,-114063,66411,232933,40247
1033613,-113890,-108093,40471,316974,166291,-114046,227857,-118388,-114098,66391,232859,40234
1033614,-113924,-108117,40460,316941,166201,-114057,227789,-118396,-114107,66311,232785,40225
1033615,-113928,-108125,40447,316917,166130,-114047,227706,-118399,-114104,66236,232757,40214
1033616,-113942,-108134,40439,316869,166075,-114051,227612,-118404,-114105,66184,232747,40206
1033617,-113979,-108148,40427,316795,165976,-114051,227557,-118398,-114105,66195,232740,40190
1033618,-113998,-108153,40414,316749,165948,-114080,227594,-118435,-114135,66196,232773,40178
1033619,-114023,-108162,40401,316684,165938,-114125,227621,-118456,-114179,66190,232785,40166
1033620,-114040,-108177,40391,316590,165926,-114111,227645,-118449,-114167,66253,232809,40153
1033621,-114027,-108161,40382,316560,165944,-114108,227673,-118451,-114162,66295,232863,40149
1033622,-114007,-108152,40393,316621,165937,-114101,227684,-118434,-114154,66327,232811,40155
1033623,-113968,-108132,40408,316707,165919,-114091,227725,-118393,-114145,66377,232732,40172
1033624,-113937,-108111,40431,316741,165899,-114083,227755,-118376,-114135,66357,232823,40195
1033625,-113918,-108084,40484,316798,165911,-114067,227750,-118361,-114121,66347,232920,40251
1033626,-113917,-108076,40501,316856,165977,-114041,227733,-118355,-114094,66379,232985,40268
1033627,-113883,-108078,40497,316830,166122,-114004,227731,-118338,-114058,66417,233085,40260
1033628,-113871,-108054,40523,316864,166232,-113989,227668,-118350,-114043,66451,233157,40287
1033629,-113847,-108020,40557,316961,166283,-114002,227667,-118359,-114055,66475,233153,40324
1033630,-113863,-107994,40539,316996,166270,-113990,227733,-118331,-114044,66499,233123,40307
1033631,-113856,-108015,40481,316984,166202,-113974,227823,-118338,-114030,66490,233072,40246
1033632,-113872,-108017,40403,316987,166218,-113982,227838,-118365,-114036,66495,233011,40166
1033633,-113909,-108042,40369,316976,166197,-114002,227767,-118376,-114054,66461,232948,40135
1033634,-113908,-108031,40431,316914,166155,-114021,227647,-118390,-114073,66388,232833,40196
1033635,-113937,-108053,40521,316841,166102,-114023,227538,-118395,-114075,66320,232733,40288
1033636,-113973,-108079,40579,316726,166096,-114042,227506,-118410,-114098,66289,232703,40342
1033637,-114015,-108087,40555,316679,166040,-114090,227504,-118453,-114143,66277,232737,40322
1033638,-114048,-108094,40512,316653,166006,-114119,227547,-118476,-114175,66260,232788,40277
1033639,-114062,-108107,40453,316704,165988,-114171,227575,-118504,-114223,66220,232778,40218
1033640,-114055,-108109,40454,316796,165992,-114194,227569,-118538,-114248,66203,232814,40219
1033641,-114038,-108112,40457,316876,166048,-114214,227559,-118553,-114266,66211,232837,40225
1033642,-114011,-108112,40441,316911,166112,-114189,227516,-118533,-114241,66203,232868,40204
1033643,-113987,-108099,40487,316902,166058,-114140,227530,-118495,-114194,66238,232897,40252
1033644,-113967,-108072,40537,316939,166023,-114112,227606,-118469,-114166,66257,232884,40303
1033645,-113905,-108061,40570,316970,166010,-114096,227621,-118440,-114148,66288,232901,40335
1033646,-113855,-108035,40590,316984,166031,-114072,227642,-118420,-114125,66252,232957,40354
1033647,-113831,-108017,40620,317001,166035,-114054,227732,-118408,-114110,66294,233033,40384
1033648,-113817,-107994,40652,317006,166021,-114057,227821,-118399,-114109,66319,233067,40420
1033649,-113796,-107979,40681,317049,166081,-114068,227861,-118368,-114122,66329,233042,40445
1033650,-113810,-107969,40680,317090,166203,-114078,227891,-118374,-114129,66344,232980,40445
1033651,-113840,-107970,40682,317118,166283,-114089,227848,-118385,-114143,66354,232840,40448
1033652,-113860,-107970,40688,317077,166318,-114102,227757,-118400,-114154,66385,232739,40454
1033653,-113905,-107980,40679,317036,166234,-114125,227692,-118427,-114179,66400,232663,40443
1033654,-113924,-108004,40656,317126,166130,-114172,227646,-118474,-114223,66344,232567,40425
1033655,-113917,-108008,40645,317130,166033,-114203,227676,-118509,-114257,66248,232473,40411
1033656,-113920,-108016,40624,316935,166003,-114203,227651,-118526,-114257,66237,232527,40389
1033657,-113913,-108043,40606,316705,165946,-114195,227560,-118512,-114249,66227,232616,40372
1033658,-113921,-108051,40602,316707,165925,-114191,227502,-118525,-114243,66168,232681,40368
1033659,-113990,-108079,40564,316676,166019,-114232,227494,-118543,-114287,66145,232687,40328
1033660,-114014,-108093,40521,316719,166103,-114240,227515,-118557,-114296,66093,232712,40285
1033661,-114013,-108085,40540,316840,166173,-114256,227497,-118554,-114312,66061,232695,40304
1033662,-113992,-108057,40563,316908,166171,-114274,227520,-118535,-114327,66042,232695,40329
1033663,-113987,-108047,40567,316948,166146,-114294,227562,-118528,-114346,66037,232820,40333
1033664,-113952,-108044,40565,316948,166212,-114312,227618,-118520,-114367,66075,232899,40331
1033665,-113943,-108032,40564,317000,166305,-114292,227632,-118536,-114348,66114,232968,40332
1033666,-113919,-108025,40587,317070,166297,-114246,227600,-118531,-114297,66203,232965,40354
1033667,-113896,-107994,40650,317098,166280,-114161,227603,-118482,-114215,66264,233013,40415
1033668,-113893,-107994,40684,317099,166330,-114111,227614,-118474,-114162,66317,233068,40451
1033669,-113909,-107991,40714,317123,166384,-114094,227676,-118478,-114146,66369,233146,40479
1033670,-113883,-107977,40743,317088,166355,-114071,227660,-118457,-114127,66391,233169,40507
1033671,-113875,-107992,40754,317095,166314,-114078,227705,-118452,-114130,66376,233052,40516
1033672,-113877,-107989,40764,317147,166280,-114106,227693,-118463,-114159,66347,232902,40526
1033673,-113887,-108006,40701,317110,166215,-114113,227652,-118474,-114166,66341,232828,40467
1033674,-113896,-108017,40650,317048,166099,-114132,227552,-118480,-114183,66333,232861,40417
1033675,-113934,-108023,40655,317000,166006,-114185,227517,-118512,-114238,66279,232838,40419
1033676,-113981,-108038,40652,316997,166001,-114250,227468,-118535,-114306,66255,232855,40417
1033677,-114016,-108057,40670,316924,165961,-114241,227425,-118550,-114295,66285,232774,40434
1033678,-114021,-108060,40693,316849,165944,-114216,227434,-118560,-114272,66322,232597,40456
1033679,-114042,-108070,40704,316825,165946,-114212,227448,-118568,-114264,66323,232508,40468
1033680,-114037,-108068,40725,316849,165991,-114234,227479,-118598,-114288,66215,232505,40490
1033681,-114036,-108066,40723,316919,166038,-114249,227489,-118610,-114304,66121,232595,40488
1033682,-114044,-108055,40712,317012,166039,-114221,227463,-118590,-114274,66140,232651,40478
1033683,-114049,-108062,40700,317018,166085,-114184,227460,-118559,-114237,66195,232787,40465
1033684,-114038,-108060,40688,316960,166122,-114172,227502,-118536,-114227,66272,232910,40457
1033685,-114032,-108060,40708,316956,166153,-114145,227589,-118506,-114199,66335,232949,40476
1033686,-114023,-108038,40739,316996,166322,-114159,227602,-118526,-114215,66303,233003,40507
1033687,-113982,-108020,40799,317069,166415,-114144,227589,-118481,-114197,66273,233055,40565
1033688,-113943,-107987,40833,317100,166436,-114113,227651,-118470,-114167,66259,232979,40597
1033689,-113906,-107952,40833,317163,166434,-114088,227658,-118425,-114142,66301,232999,40602
1033690,-113896,-107938,40814,317205,166443,-114131,227618,-118436,-114184,66323,233054,40578
1033691,-113917,-107933,40787,317199,166443,-114156,227615,-118475,-114209,66336,233074,40552
1033692,-113902,-107958,40749,317148,166420,-114179,227700,-118504,-114230,66262,232998,40515
1033693,-113893,-107963,40760,317152,166386,-114201,227688,-118526,-114257,66214,232844,40526
1033694,-113929,-108002,40755,317103,166288,-114208,227699,-118550,-114260,66222,232723,40522
1033695,-113969,-108026,40734,317037,166187,-114231,227718,-118578,-114284,66213,232701,40500
1033696,-113977,-108062,40712,316998,166145,-114269,227693,-118601,-114324,66193,232665,40481
1033697,-114016,-108087,40695,317000,166065,-114294,227648,-118620,-114343,66194,232603,40462
1033698,-114038,-108084,40635,316979,165981,-114299,227625,-118608,-114353,66206,232657,40401
1033699,-114039,-108073,40572,316863,165925,-114301,227610,-118613,-114355,66165,232781,40336
1033700,-114018,-108082,40519,316736,165897,-114324,227591,-118618,-114378,66168,232963,40284
1033701,-114024,-108066,40518,316688,165911,-114318,227596,-118601,-114371,66175,233063,40280
1033702,-113977,-108052,40572,316787,165926,-114290,227516,-118573,-114341,66164,233007,40338
1033703,-113921,-108056,40641,316886,166021,-114262,227436,-118540,-114316,66179,232881,40405
1033704,-113883,-108034,40673,316963,166162,-114253,227421,-118533,-114309,66193,232788,40441
1033705,-113917,-108032,40702,317025,166257,-114249,227482,-118522,-114300,66185,232827,40469
1033706,-113925,-108000,40736,317102,166290,-114249,227592,-118511,-114300,66149,232871,40502
1033707,-113877,-107980,40727,317124,166289,-114229,227765,-118495,-114281,66185,232854,40493
1033708,-113813,-107949,40736,317138,166283,-114253,227878,-118505,-114304,66180,232891,40503
1033709,-113786,-107930,40725,317149,166297,-114231,227881,-118504,-114284,66255,232923,40491
1033710,-113745,-107909,40764,317144,166234,-114211,227818,-118454,-114265,66319,232889,40529
1033711,-113741,-107889,40804,317153,166207,-114219,227788,-118451,-114270,66288,232781,40569
1033712,-113765,-107892,40826,317115,166226,-114274,227788,-118494,-114325,66212,232776,40593
1033713,-113820,-107932,40810,317063,166261,-114314,227758,-118530,-114368,66143,232786,40577
1033714,-113883,-107986,40744,316982,166271,-114336,227720,-118544,-114387,66164,232709,40509
1033715,-113907,-108011,40678,316944,166207,-114324,227682,-118567,-114380,66149,232663,40444
1033716,-113939,-108033,40643,316937,166150,-114346,227584,-118614,-114395,66159,232775,40407
1033717,-113989,-108058,40636,316961,166126,-114360,227495,-118668,-114414,66089,232866,40402
1033718,-114016,-108059,40627,316971,166124,-114359,227480,-118687,-114412,66082,232837,40394
1033719,-114002,-108075,40602,316953,166069,-114374,227449,-118697,-114427,66115,232856,40367
1033720,-113991,-108068,40594,317004,166030,-114402,227438,-118694,-114455,66165,232846,40363
1033721,-113976,-108081,40585,317034,166068,-114352,227467,-118657,-114408,66185,232766,40352
1033722,-113972,-108066,40564,316950,166125,-114308,227530,-118620,-114361,66180,232787,40332
1033723,-113986,-108058,40562,316883,166135,-114260,227627,-118559,-114315,66236,232789,40332
1033724,-113962,-108031,40581,316904,166169,-114232,227701,-118537,-114284,66280,232743,40346
1033725,-113941,-108034,40602,316948,166208,-114187,227766,-118547,-114240,66285,232782,40364
1033726,-113890,-108020,40630,316979,166260,-114185,227779,-118549,-114238,66270,232862,40398
1033727,-113834,-108008,40676,317029,166308,-114178,227830,-118543,-114231,66279,232926,40446
1033728,-113775,-107995,40701,317066,166304,-114157,227895,-118545,-114213,66306,232929,40466
1033729,-113778,-107973,40723,317142,166353,-114164,227903,-118532,-114217,66345,232968,40491
1033730,-113781,-107923,40760,317161,166354,-114169,227899,-118518,-114223,66336,232964,40525
1033731,-113777,-107911,40768,317146,166311,-114173,227868,-118508,-114223,66331,232924,40535
1033732,-113806,-107919,40767,317121,166305,-114215,227782,-118533,-114268,66266,232975,40534
1033733,-113852,-107935,40748,317083,166251,-114219,227672,-118539,-114273,66263,232968,40514
1033734,-113881,-107921,40750,317043,166142,-114241,227571,-118552,-114291,66244,232903,40516
1033735,-113939,-107933,40726,317006,166074,-114234,227539,-118551,-114287,66207,232834,40493
1033736,-113943,-107948,40685,316957,166080,-114220,227492,-118547,-114274,66171,232776,40453
1033737,-113955,-107987,40643,316874,166095,-114220,227458,-118556,-114275,66116,232762,40411
1033738,-113989,-108029,40593,316849,166000,-114232,227540,-118539,-114287,66117,232816,40360
1033739,-114012,-108066,40559,316858,165924,-114255,227521,-118542,-114309,66183,232846,40324
1033740,-113977,-108064,40543,316830,165881,-114243,227498,-118536,-114298,66211,232850,40311
1033741,-113969,-108087,40522,316833,165901,-114257,227602,-118553,-114309,66246,232872,40286
1033742,-113940,-108078,40514,316852,165951,-114250,227661,-118572,-114303,66249,232870,40281
1033743,-113887,-108064,40516,316856,166040,-114228,227655,-118556,-114283,66249,232865,40282
1033744,-113869,-108044,40535,316869,166122,-114205,227685,-118554,-114260,66272,232866,40299
1033745,-113857,-108016,40552,316919,166173,-114179,227738,-118526,-114230,66298,232815,40317
1033746,-113829,-107978,40599,317010,166236,-114145,227749,-118509,-114198,66312,232747,40365
1033747,-113785,-107945,40633,317039,166297,-114121,227747,-118502,-114173,66365,232790,40402
1033748,-113776,-107945,40671,317121,166384,-114132,227727,-118493,-114186,66350,232901,40437
1033749,-113766,-107945,40728,317142,166449,-114110,227731,-118500,-114166,66333,233017,40493
1033750,-113783,-107929,40749,317172,166430,-114111,227789,-118478,-114165,66344,232957,40516
1033751,-113773,-107932,40749,317181,166359,-114125,227848,-118491,-114178,66334,232886,40518
1033752,-113798,-107939,40742,317184,166274,-114148,227789,-118520,-114202,66346,232908,40512
1033753,-113807,-107957,40720,317171,166204,-114170,227648,-118552,-114223,66282,232973,40486
1033754,-113840,-107958,40698,317127,166168,-114192,227521,-118551,-114245,66238,232917,40463
1033755,-113875,-107983,40670,317048,166217,-114219,227524,-118555,-114273,66181,232822,40434
1033756,-113897,-108003,40619,316985,166220,-114247,227506,-118559,-114300,66155,232773,40385
1033757,-113949,-108035,40591,316942,166125,-114247,227493,-118566,-114302,66165,232764,40355
1033758,-113964,-108049,40547,316901,166068,-114195,227506,-118570,-114250,66224,232719,40313
1033759,-114038,-108075,40494,316863,166033,-114213,227564,-118610,-114266,66271,232736,40262
1033760,-114051,-108079,40477,316828,166071,-114239,227583,-118628,-114290,66311,232777,40245
1033761,-114034,-108068,40479,316864,166074,-114226,227577,-118616,-114279,66317,232747,40246
1033762,-113997,-108049,40495,316879,166062,-114188,227595,-118605,-114243,66282,232768,40259
1033763,-113989,-108030,40528,316911,166048,-114154,227621,-118584,-114208,66259,232804,40294
1033764,-113953,-108000,40565,316937,166084,-114165,227689,-118591,-114220,66245,232872,40332
1033765,-113936,-107986,40584,316972,166137,-114144,227709,-118572,-114197,66255,232918,40348
1033766,-113914,-107963,40607,316995,166168,-114108,227708,-118542,-114161,66292,232961,40373
1033767,-113868,-107939,40662,317024,166178,-114110,227758,-118531,-114165,66327,233023,40432
1033768,-113828,-107932,40677,317047,166159,-114128,227827,-118525,-114182,66349,233109,40443
1033769,-113806,-107932,40649,317115,166170,-114128,227888,-118507,-114179,66351,233139,40416
1033770,-113772,-107903,40659,317171,166153,-114112,227908,-118494,-114166,66348,233057,40426
1033771,-113773,-107882,40664,317222,166136,-114145,227888,-118511,-114198,66330,232970,40430
1033772,-113800,-107896,40663,317171,166081,-114153,227887,-118533,-114206,66322,232929,40433
1033773,-113851,-107896,40676,317089,166021,-114141,227817,-118559,-114198,66322,232883,40444
1033774,-113912,-107907,40681,317032,165976,-114194,227742,-118568,-114246,66280,232845,40448
1033775,-113974,-107935,40677,316960,165980,-114209,227642,-118592,-114262,66232,232906,40444
1033776,-114015,-107958,40682,316918,165957,-114200,227523,-118605,-114254,66236,232909,40448
1033777,-114006,-107975,40655,316888,165975,-114212,227402,-118624,-114265,66200,232844,40418
1033778,-114038,-107994,40642,316863,166039,-114216,227382,-118649,-114272,66154,232828,40407
1033779,-114042,-107994,40627,316841,166054,-114237,227406,-118646,-114294,66092,232771,40393
1033780,-114017,-107993,40608,316830,165966,-114247,227428,-118642,-114303,66124,232756,40372
1033781,-113980,-107965,40594,316874,165923,-114242,227449,-118621,-114293,66159,232744,40358
1033782,-113928,-107979,40565,316855,166013,-114219,227490,-118627,-114276,66193,232704,40330
1033783,-113906,-107991,40540,316856,166148,-114195,227543,-118623,-114249,66210,232675,40307
1033784,-113891,-107972,40575,316970,166150,-114186,227580,-118613,-114238,66226,232636,40342
1033785,-113903,-107972,40659,317050,166149,-114176,227595,-118601,-114231,66263,232652,40423
1033786,-113912,-107957,40731,317058,166220,-114135,227524,-118561,-114188,66360,232647,40494
1033787,-113903,-107935,40782,317081,166307,-114092,227524,-118520,-114148,66424,232648,40550
1033788,-113882,-107916,40778,317099,166359,-114092,227583,-118512,-114144,66384,232769,40546
1033789,-113853,-107905,40774,317187,166445,-114102,227577,-118519,-114156,66294,232895,40540
1033790,-113832,-107907,40732,317252,166509,-114100,227559,-118530,-114153,66297,232921,40498
1033791,-113827,-107923,40740,317242,166506,-114126,227524,-118531,-114179,66322,232955,40506
1033792,-113848,-107932,40766,317221,166382,-114141,227580,-118557,-114194,66297,232884,40529
1033793,-113912,-107958,40746,317142,166214,-114142,227676,-118576,-114195,66296,232837,40511
1033794,-113971,-108017,40703,316990,166146,-114121,227618,-118572,-114171,66329,232858,40469
1033795,-114020,-108035,40661,316978,166117,-114164,227561,-118601,-114214,66306,232855,40428
1033796,-114029,-108068,40647,316988,166134,-114204,227520,-118644,-114257,66255,232833,40412
1033797,-114055,-108073,40593,316982,166102,-114222,227484,-118654,-114277,66199,232815,40357
1033798,-114072,-108087,40567,316994,166029,-114252,227482,-118664,-114304,66202,232840,40332
1033799,-114077,-108077,40549,316969,165989,-114244,227500,-118663,-114296,66214,232753,40314
1033800,-114083,-108077,40532,316951,165988,-114249,227544,-118676,-114305,66182,232788,40298
1033801,-114085,-108069,40552,316928,165999,-114263,227622,-118646,-114313,66165,232816,40319
1033802,-114045,-108054,40580,316932,166091,-114269,227652,-118646,-114322,66134,232746,40344
1033803,-114024,-108062,40637,316956,166081,-114249,227689,-118625,-114303,66146,232789,40402
1033804,-114029,-108051,40656,316944,166118,-114261,227671,-118621,-114316,66189,232985,40423
1033805,-114021,-108044,40681,316957,166231,-114247,227636,-118621,-114305,66210,233129,40448
1033806,-113953,-108017,40711,316960,166241,-114213,227597,-118613,-114265,66261,233141,40479
1033807,-113899,-107984,40735,317059,166266,-114169,227609,-118587,-114223,66290,233103,40501
1033808,-113869,-107952,40754,317105,166319,-114172,227668,-118563,-114227,66325,233054,40519
1033809,-113858,-107916,40746,317101,166380,-114163,227763,-118550,-114216,66329,233059,40511
1033810,-113849,-107887,40749,317087,166341,-114136,227799,-118519,-114188,66338,233064,40517
1033811,-113843,-107905,40736,317081,166257,-114136,227794,-118529,-114189,66393,233036,40501
1033812,-113868,-107928,40729,317097,166226,-114153,227772,-118538,-114208,66359,232950,40496
1033813,-113921,-107954,40721,317132,166195,-114167,227690,-118564,-114220,66333,232846,40490
1033814,-113990,-107981,40713,317175,166221,-114206,227637,-118589,-114256,66370,232670,40477
1033815,-113999,-107998,40709,317169,166189,-114219,227559,-118606,-114272,66365,232526,40475
1033816,-113984,-108004,40671,317130,166151,-114235,227471,-118593,-114290,66282,232535,40435
1033817,-113998,-108054,40646,317049,166130,-114239,227433,-118611,-114290,66213,232611,40410
1033818,-113972,-108059,40625,317003,166162,-114290,227404,-118643,-114342,66151,232684,40394
1033819,-113998,-108074,40612,316975,166162,-114325,227397,-118688,-114380,66135,232716,40377
1033820,-114030,-108084,40611,316964,166134,-114330,227414,-118695,-114384,66140,232769,40373
1033821,-114027,-108072,40626,316978,166039,-114315,227441,-118690,-114371,66167,232883,40390
1033822,-114051,-108069,40641,316982,165988,-114271,227516,-118678,-114323,66196,232889,40406
1033823,-114041,-108063,40635,316935,166022,-114245,227600,-118656,-114297,66236,232906,40400
1033824,-114020,-108060,40621,316888,166081,-114215,227654,-118623,-114270,66303,232973,40385
1033825,-113971,-108038,40650,316934,166101,-114200,227643,-118612,-114253,66319,233038,40415
1033826,-113908,-108001,40702,317040,166126,-114214,227658,-118605,-114268,66259,233061,40465
1033827,-113829,-107966,40742,317109,166187,-114206,227668,-118563,-114260,66249,233058,40504
1033828,-113814,-107958,40767,317167,166245,-114186,227709,-118550,-114241,66248,233080,40532
1033829,-113827,-107938,40794,317198,166245,-114169,227783,-118541,-114222,66258,233115,40556
1033830,-113842,-107928,40819,317162,166260,-114136,227834,-118525,-114187,66284,233088,40584
1033831,-113845,-107926,40813,317125,166252,-114147,227823,-118532,-114200,66303,233076,40577
1033832,-113858,-107944,40766,317028,166245,-114153,227831,-118553,-114207,66292,233040,40529
1033833,-113890,-107982,40725,316976,166278,-114187,227841,-118580,-114240,66239,232973,40493
1033834,-113945,-108020,40688,316933,166315,-114203,227814,-118606,-114256,66207,232898,40453
1033835,-113969,-108029,40668,316866,166279,-114222,227764,-118617,-114275,66209,232831,40436
1033836,-113986,-108037,40675,316868,166255,-114240,227692,-118628,-114291,66198,232751,40441
1033837,-114002,-108043,40678,316950,166253,-114279,227589,-118658,-114330,66134,232627,40445
1033838,-113990,-108024,40680,316990,166242,-114291,227416,-118666,-114345,66142,232590,40447
1033839,-114005,-108023,40694,317019,166237,-114291,227237,-118635,-114343,66142,232571,40460
1033840,-114036,-108019,40728,317048,166262,-114308,227245,-118640,-114361,66092,232598,40493
1033841,-114036,-108029,40711,317053,166254,-114327,227328,-118631,-114378,66104,232682,40477
1033842,-113980,-108025,40687,317027,166199,-114328,227461,-118612,-114381,66167,232678,40456
1033843,-113956,-108000,40695,317001,166125,-114295,227578,-118586,-114346,66214,232729,40459
1033844,-113906,-108000,40698,316986,166071,-114259,227721,-118587,-114312,66207,232833,40463
1033845,-113878,-107996,40709,317017,166067,-114189,227791,-118590,-114241,66199,232914,40473
1033846,-113872,-107978,40680,317090,166007,-114142,227855,-118561,-114193,66270,232952,40443
1033847,-113850,-107948,40657,317109,165888,-114057,227907,-118505,-114111,66419,233050,40423
1033848,-113846,-107929,40630,317086,165928,-114020,227909,-118464,-114071,66486,233122,40397
1033849,-113822,-107913,40638,317117,166111,-114030,227891,-118457,-114086,66502,233136,40402
1033850,-113803,-107908,40653,317105,166192,-114051,227902,-118465,-114108,66526,233106,40417
1033851,-113801,-107925,40726,317161,166221,-114099,227872,-118454,-114150,66498,233020,40492
1033852,-113797,-107946,40751,317189,166293,-114116,227701,-118473,-114168,66443,232985,40518
1033853,-113807,-107965,40757,317179,166358,-114128,227586,-118485,-114179,66367,232892,40524
1033854,-113849,-107997,40749,317135,166357,-114145,227557,-118512,-114198,66338,232791,40511
1033855,-113914,-108037,40714,317072,166320,-114161,227574,-118533,-114213,66286,232814,40484
1033856,-113943,-108047,40681,317018,166225,-114149,227577,-118561,-114203,66273,232850,40448
1033857,-113967,-108063,40642,316963,166056,-114138,227589,-118563,-114189,66309,232852,40408
1033858,-113996,-108077,40632,316931,165981,-114155,227589,-118588,-114208,66282,232956,40403
1033859,-114008,-108075,40631,316886,166018,-114175,227478,-118589,-114228,66242,232989,40397
1033860,-113987,-108059,40655,316852,166074,-114153,227414,-118555,-114205,66226,232878,40422
1033861,-113974,-108023,40679,316904,166021,-114092,227431,-118525,-114144,66185,232862,40443
1033862,-113983,-108003,40690,316971,166053,-114073,227456,-118531,-114128,66143,232902,40456
1033863,-113974,-108006,40687,316988,166159,-114064,227499,-118516,-114119,66170,232929,40453
1033864,-113953,-107998,40693,316932,166212,-114079,227573,-118516,-114133,66192,233019,40456
1033865,-113901,-107974,40707,316921,166292,-114068,227640,-118522,-114123,66235,233050,40472
1033866,-113869,-107963,40707,316990,166372,-114064,227665,-118508,-114117,66285,233029,40471
1033867,-113831,-107952,40723,317034,166450,-114063,227728,-118495,-114113,66371,233027,40490
1033868,-113810,-107951,40736,317091,166516,-114060,227708,-118488,-114113,66421,233126,40499
1033869,-113801,-107941,40792,317176,166590,-114067,227722,-118497,-114118,66446,233157,40557
1033870,-113779,-107927,40806,317192,166597,-114042,227772,-118479,-114095,66446,233089,40570
1033871,-113763,-107928,40792,317168,166518,-114037,227775,-118465,-114091,66469,233014,40558
1033872,-113765,-107932,40788,317142,166475,-114052,227735,-118483,-114103,66469,232937,40555
1033873,-113770,-107960,40746,317076,166373,-114057,227742,-118494,-114109,66469,232836,40511
1033874,-113805,-107991,40724,317050,166305,-114082,227707,-118508,-114135,66390,232805,40490
1033875,-113849,-108008,40704,317070,166242,-114120,227673,-118544,-114173,66303,232825,40470
1033876,-113913,-108016,40676,317125,166193,-114103,227554,-118561,-114156,66280,232825,40441
1033877,-113969,-108029,40655,317137,166131,-114102,227513,-118563,-114157,66264,232781,40418
1033878,-114007,-108028,40659,317065,166065,-114088,227551,-118566,-114143,66260,232774,40426
1033879,-114003,-108030,40640,316963,166023,-114107,227617,-118584,-114161,66251,232812,40406
1033880,-113974,-108031,40630,316900,166035,-114108,227699,-118603,-114161,66221,232778,40398
1033881,-113990,-108016,40654,316895,166131,-114135,227755,-118609,-114189,66238,232768,40420
1033882,-113977,-108019,40653,316957,166119,-114147,227754,-118629,-114200,66267,232821,40417
1033883,-113972,-108010,40659,317051,166085,-114138,227729,-118623,-114195,66308,232934,40423
1033884,-113950,-108000,40656,317111,166075,-114088,227682,-118588,-114142,66369,232996,40421
1033885,-113923,-107998,40672,317173,166089,-114059,227701,-118540,-114110,66367,233041,40437
1033886,-113876,-107963,40680,317158,166059,-114040,227757,-118504,-114092,66396,233086,40445
1033887,-113844,-107942,40722,317202,166097,-114033,227823,-118495,-114089,66396,233154,40485
1033888,-113818,-107936,40740,317230,166162,-114036,227889,-118493,-114090,66348,233215,40507
1033889,-113795,-107919,40757,317224,166263,-114038,227921,-118473,-114092,66388,233191,40520
1033890,-113741,-107901,40769,317258,166336,-114028,227872,-118473,-114080,66389,233099,40534
1033891,-113725,-107906,40750,317248,166388,-114048,227872,-118471,-114100,66385,232945,40516
1033892,-113741,-107919,40739,317202,166416,-114080,227906,-118489,-114135,66348,232786,40506
1033893,-113781,-107930,40723,317170,166344,-114106,227863,-118494,-114160,66348,232688,40488
1033894,-113800,-107933,40736,317132,166267,-114166,227777,-118535,-114217,66264,232725,40500
1033895,-113854,-107947,40698,317071,166218,-114231,227716,-118573,-114286,66210,232831,40466
1033896,-113868,-107974,40629,317022,166240,-114263,227628,-118587,-114314,66190,232837,40396
1033897,-113908,-108001,40569,316984,166262,-114267,227510,-118592,-114320,66169,232868,40337
1033898,-113939,-108026,40543,316911,166166,-114214,227428,-118572,-114266,66232,232972,40307
1033899,-113945,-108032,40543,316842,166007,-114172,227327,-118560,-114224,66292,232976,40309
1033900,-114010,-108032,40578,316852,165945,-114135,227288,-118541,-114188,66339,232982,40348
1033901,-114012,-108039,40600,316825,165994,-114091,227363,-118551,-114145,66359,232944,40367
1033902,-113979,-108047,40631,316892,166066,-114085,227388,-118579,-114138,66334,232920,40396
1033903,-113954,-108037,40664,317021,166127,-114102,227440,-118583,-114154,66304,232902,40430
1033904,-113918,-108023,40637,317080,166198,-114111,227547,-118610,-114165,66323,232921,40398
1033905,-113883,-108011,40651,317097,166197,-114082,227682,-118580,-114133,66354,232914,40416
1033906,-113843,-107989,40670,317112,166187,-114063,227760,-118557,-114114,66413,232913,40438
1033907,-113817,-107980,40697,317112,166175,-114050,227848,-118518,-114104,66458,232995,40463
1033908,-113793,-107967,40706,317159,166182,-114051,227887,-118523,-114104,66472,233053,40470
1033909,-113750,-107944,40787,317181,166121,-114044,227934,-118512,-114098,66478,233092,40550
1033910,-113763,-107931,40825,317209,166129,-114036,227946,-118521,-114089,66452,233133,40590
1033911,-113780,-107940,40817,317102,166181,-114023,227922,-118513,-114075,66463,233126,40584
1033912,-113788,-107956,40826,317109,166202,-114033,227839,-118526,-114088,66436,233035,40593
1033913,-113817,-107971,40792,317115,166249,-114072,227737,-118564,-114125,66405,232980,40558
1033914,-113896,-108010,40740,317096,166367,-114121,227651,-118599,-114173,66351,232979,40508
1033915,-113946,-108044,40699,317071,166378,-114151,227676,-118645,-114204,66279,232939,40466
1033916,-113974,-108066,40663,317066,166378,-114170,227723,-118664,-114223,66221,232841,40429
1033917,-113999,-108090,40670,317110,166423,-114219,227670,-118709,-114272,66169,232756,40434
1033918,-114008,-108088,40664,317125,166439,-114235,227611,-118718,-114287,66134,232732,40429
1033919,-114005,-108100,40660,317111,166367,-114226,227589,-118722,-114280,66106,232712,40428
1033920,-114009,-108101,40640,317125,166335,-114237,227571,-118728,-114290,66113,232793,40406
1033921,-114005,-108100,40646,317140,166273,-114216,227595,-118712,-114270,66085,232871,40414
1033922,-113999,-108093,40641,317104,166279,-114191,227671,-118672,-114243,66105,232907,40404
1033923,-113975,-108071,40657,317064,166298,-114193,227711,-118659,-114246,66171,232948,40423
1033924,-113930,-108056,40686,317043,166322,-114188,227746,-118639,-114241,66242,232945,40451
1033925,-113896,-108045,40693,317019,166395,-114169,227782,-118629,-114224,66289,232948,40457
1033926,-113877,-108011,40726,317069,166409,-114151,227786,-118593,-114204,66332,232910,40491
1033927,-113835,-107967,40768,317153,166435,-114108,227817,-118547,-114164,66363,232864,40533
1033928,-113821,-107937,40792,317235,166446,-114122,227867,-118525,-114173,66383,232846,40559
1033929,-113805,-107920,40832,317263,166439,-114086,227861,-118513,-114141,66406,232934,40599
1033930,-113791,-107927,40844,317301,166476,-114094,227792,-118536,-114145,66390,233024,40612
1033931,-113776,-107947,40819,317279,166471,-114126,227755,-118546,-114179,66354,233128,40583
1033932,-113794,-107973,40797,317249,166381,-114176,227751,-118575,-114229,66334,233203,40562
1033933,-113828,-107989,40757,317218,166263,-114199,227711,-118594,-114253,66330,233210,40522
1033934,-113832,-108014,40735,317168,166158,-114197,227628,-118600,-114254,66309,233134,40501
1033935,-113840,-108017,40722,317108,166106,-114223,227572,-118606,-114274,66301,232996,40490
1033936,-113840,-108014,40731,317126,166066,-114258,227498,-118628,-114313,66294,232871,40496
1033937,-113860,-108010,40726,317141,165939,-114251,227385,-118603,-114302,66293,232749,40491
1033938,-113891,-108018,40656,317037,165851,-114216,227372,-118573,-114270,66322,232802,40422
1033939,-113956,-108054,40584,316932,165888,-114229,227429,-118573,-114280,66298,232864,40349
1033940,-113981,-108069,40538,316879,166059,-114250,227515,-118582,-114304,66274,232795,40304
