Timestamp (ms),Ch0 (uV),Ch1 (uV),Ch2 (uV),Ch3 (uV),Ch4 (uV),Ch5 (uV),Ch6 (uV),Ch7 (uV),Ch8 (uV),Ch9 (uV),Ch10 (uV),Ch11 (uV)
1016191,-114894,-106647,39571,318423,165379,-115663,226478,-120390,-115715,64771,232406,39337
1016192,-114908,-106659,39532,318430,165311,-115693,226400,-120413,-115745,64718,232409,39298
1016193,-114942,-106673,39532,318388,165295,-115701,226317,-120409,-115752,64674,232330,39296
1016194,-114963,-106673,39539,318391,165264,-115708,226125,-120409,-115761,64635,232322,39301
1016195,-114993,-106685,39527,318363,165244,-115749,226069,-120453,-115805,64574,232384,39291
1016196,-115034,-106717,39501,318274,165153,-115759,226133,-120476,-115813,64554,232432,39266
1016197,-115085,-106734,39480,318244,165084,-115751,226145,-120466,-115804,64593,232412,39244
1016198,-115101,-106741,39449,318245,165019,-115761,226119,-120463,-115816,64595,232433,39215
1016199,-115118,-106734,39434,318227,164949,-115762,226145,-120460,-115815,64566,232518,39203
1016205,-115014,-106681,39585,318348,165261,-115703,226438,-120390,-115754,64545,232734,39352
1016208,-114901,-106605,39653,318483,165315,-115587,226573,-120323,-115640,64762,232610,39415
1016209,-114892,-106600,39675,318451,165361,-115606,226576,-120339,-115661,64799,232656,39436
1016210,-114885,-106607,39680,318422,165336,-115652,226612,-120310,-115706,64799,232658,39445
1016211,-114905,-106625,39616,318419,165345,-115695,226600,-120322,-115751,64771,232619,39381
1016212,-114898,-106635,39588,318416,165376,-115740,226587,-120327,-115792,64730,232442,39352
1016213,-114924,-106657,39553,318368,165337,-115777,226559,-120344,-115829,64689,232350,39319
1016214,-114933,-106680,39534,318318,165211,-115829,226523,-120358,-115880,64666,232397,39301
1016215,-114980,-106695,39504,318248,165156,-115837,226492,-120371,-115890,64650,232376,39268
1016216,-115045,-106726,39523,318173,165233,-115804,226415,-120405,-115859,64654,232280,39286
1016217,-115129,-106760,39495,318108,165291,-115759,226348,-120427,-115815,64700,232325,39258
1016218,-115165,-106792,39470,318156,165247,-115780,226284,-120473,-115833,64645,232478,39232
1016219,-115169,-106784,39420,318215,165228,-115767,226244,-120497,-115820,64617,232554,39186
1016220,-115134,-106762,39391,318248,165148,-115740,226249,-120484,-115793,64697,232546,39156
1016221,-115087,-106753,39379,318274,165146,-115702,226271,-120472,-115758,64703,232581,39148
1016222,-115059,-106751,39432,318297,165196,-115675,226260,-120479,-115726,64671,232668,39196
1016223,-115067,-106737,39479,318290,165240,-115627,226282,-120438,-115679,64710,232680,39246
1016224,-115066,-106755,39535,318328,165265,-115579,226284,-120413,-115631,64743,232713,39303
1016225,-115045,-106753,39569,318385,165355,-115557,226281,-120387,-115610,64764,232731,39333
1016226,-115017,-106722,39566,318399,165386,-115493,226335,-120328,-115546,64823,232693,39331
1016227,-114963,-106697,39615,318400,165336,-115467,226409,-120307,-115520,64892,232686,39381
1016228,-114907,-106665,39653,318432,165299,-115459,226412,-120298,-115515,64936,232711,39419
1016229,-114895,-106648,39691,318475,165282,-115451,226415,-120269,-115501,64925,232687,39456
1016230,-114887,-106669,39675,318441,165284,-115488,226480,-120291,-115542,64908,232737,39442
1016231,-114921,-106687,39642,318449,165306,-115531,226494,-120332,-115586,64840,232749,39407
1016232,-114958,-106738,39608,318431,165381,-115582,226469,-120357,-115636,64721,232730,39374
1016233,-114994,-106739,39575,318391,165387,-115630,226436,-120399,-115684,64606,232653,39340
1016234,-115014,-106740,39558,318373,165378,-115677,226417,-120441,-115730,64566,232577,39322
1016235,-115022,-106753,39533,318274,165327,-115693,226397,-120459,-115745,64573,232579,39301
1016236,-115047,-106763,39531,318225,165020,-115668,226408,-120443,-115721,64617,232545,39297
1016237,-115047,-106768,39539,318210,164858,-115638,226405,-120446,-115693,64659,232471,39302
1016238,-115059,-106800,39535,318138,164869,-115643,226392,-120440,-115697,64641,232428,39299
1016239,-115067,-106787,39508,318113,164925,-115644,226356,-120423,-115696,64623,232470,39272
1016240,-115067,-106791,39526,318159,164990,-115696,226323,-120415,-115749,64563,232579,39291
1016241,-115051,-106768,39548,318202,165027,-115764,226311,-120375,-115818,64566,232623,39311
1016242,-115020,-106743,39566,318204,165046,-115817,226384,-120364,-115869,64569,232633,39330
1016243,-114993,-106724,39594,318238,165128,-115785,226455,-120341,-115839,64576,232582,39359
1016244,-114963,-106704,39613,318236,165260,-115722,226458,-120325,-115772,64577,232535,39377
1016245,-114925,-106669,39651,318321,165349,-115665,226423,-120344,-115720,64559,232545,39415
1016246,-114905,-106648,39660,318403,165365,-115602,226355,-120353,-115653,64660,232654,39424
1016247,-114892,-106636,39672,318472,165368,-115554,226346,-120349,-115606,64752,232663,39440
1016248,-114854,-106620,39713,318515,165363,-115534,226436,-120308,-115585,64870,232550,39473
1016249,-114873,-106641,39707,318496,165364,-115548,226554,-120306,-115600,64927,232527,39474
1016250,-114919,-106637,39715,318533,165410,-115576,226514,-120340,-115628,64927,232551,39480
1016251,-114966,-106657,39708,318494,165385,-115565,226466,-120347,-115619,64952,232562,39474
1016252,-114989,-106688,39677,318439,165330,-115599,226426,-120379,-115650,64902,232610,39442
1016253,-115010,-106695,39641,318412,165273,-115606,226393,-120403,-115659,64826,232578,39405
1016254,-115054,-106717,39593,318331,165244,-115625,226380,-120402,-115679,64748,232589,39359
1016255,-115078,-106728,39582,318263,165205,-115675,226317,-120419,-115730,64724,232623,39347
1016256,-115115,-106741,39582,318249,165131,-115718,226255,-120431,-115771,64744,232605,39348
1016257,-115137,-106744,39561,318245,165107,-115715,226221,-120443,-115767,64790,232569,39327
1016258,-115146,-106761,39546,318223,165073,-115721,226178,-120434,-115776,64778,232568,39312
1016259,-115118,-106766,39550,318297,165066,-115717,226222,-120450,-115770,64734,232437,39315
1016260,-115086,-106729,39587,318351,164953,-115691,226299,-120427,-115746,64719,232355,39352
1016261,-115043,-106698,39627,318384,164871,-115678,226329,-120389,-115731,64704,232376,39393
1016262,-115045,-106687,39649,318384,164936,-115701,226315,-120390,-115755,64699,232561,39414
1016263,-115059,-106691,39646,318353,165131,-115767,226354,-120387,-115818,64704,232704,39414
1016264,-115053,-106685,39650,318382,165239,-115761,226380,-120382,-115815,64695,232794,39413
1016265,-115021,-106663,39681,318421,165252,-115692,226408,-120342,-115744,64727,232793,39445
1016266,-114939,-106614,39717,318512,165289,-115563,226406,-120296,-115615,64780,232654,39483
1016267,-114914,-106573,39694,318543,165352,-115517,226370,-120285,-115568,64835,232646,39460
1016268,-114896,-106568,39678,318542,165464,-115489,226379,-120304,-115541,64849,232774,39443
1016269,-114877,-106555,39663,318554,165447,-115466,226384,-120276,-115522,64845,232848,39428
1016270,-114882,-106574,39678,318506,165380,-115471,226432,-120277,-115524,64854,232915,39443
1016271,-114902,-106586,39718,318454,165314,-115496,226421,-120300,-115550,64836,232921,39483
1016272,-114968,-106620,39730,318423,165252,-115542,226447,-120332,-115599,64824,232863,39497
1016273,-115022,-106657,39725,318431,165208,-115579,226443,-120368,-115631,64848,232784,39492
1016274,-115022,-106660,39713,318440,165243,-115614,226453,-120369,-115665,64836,232523,39477
1016275,-115017,-106685,39684,318426,165243,-115641,226433,-120373,-115696,64834,232367,39452
1016276,-115022,-106686,39691,318440,165210,-115675,226423,-120396,-115726,64728,232366,39454
1016277,-115039,-106698,39674,318381,165166,-115652,226382,-120396,-115708,64671,232399,39439
1016278,-115063,-106716,39632,318272,165115,-115630,226327,-120397,-115680,64641,232532,39398
1016279,-115042,-106692,39627,318230,164905,-115580,226315,-120388,-115633,64651,232652,39391
1016280,-115031,-106691,39604,318197,164862,-115558,226355,-120391,-115610,64714,232706,39370
1016281,-115038,-106683,39612,318225,165000,-115556,226348,-120379,-115609,64752,232659,39377
1016282,-115024,-106654,39622,318298,165209,-115561,226318,-120358,-115616,64761,232599,39387
1016283,-114996,-106638,39628,318327,165300,-115538,226295,-120323,-115588,64803,232618,39391
1016284,-114980,-106605,39662,318426,165399,-115526,226297,-120304,-115578,64811,232556,39428
1016285,-114942,-106558,39711,318472,165418,-115507,226370,-120294,-115561,64847,232440,39477
1016286,-114952,-106545,39762,318498,165346,-115480,226423,-120258,-115534,64883,232633,39528
1016287,-114946,-106530,39839,318493,165381,-115460,226388,-120241,-115515,64864,232840,39607
1016288,-114883,-106514,39856,318499,165488,-115460,226452,-120243,-115511,64854,232843,39622
1016289,-114839,-106520,39835,318506,165549,-115472,226516,-120267,-115523,64848,232878,39604
1016290,-114871,-106522,39840,318515,165548,-115484,226562,-120296,-115539,64818,232892,39609
1016291,-114892,-106533,39842,318537,165516,-115496,226517,-120327,-115550,64793,232871,39608
1016292,-114899,-106543,39822,318557,165476,-115523,226455,-120351,-115575,64790,232794,39587
1016293,-114940,-106566,39792,318524,165383,-115554,226421,-120346,-115611,64800,232757,39557
1016294,-114954,-106584,39770,318490,165272,-115625,226372,-120351,-115680,64777,232791,39535
1016295,-114983,-106597,39752,318410,165171,-115628,226347,-120348,-115679,64794,232780,39519
1016296,-115008,-106603,39739,318370,165134,-115649,226297,-120353,-115703,64787,232736,39504
1016297,-115026,-106612,39729,318352,165146,-115637,226281,-120375,-115690,64759,232694,39498
1016298,-115033,-106618,39708,318309,165132,-115631,226308,-120388,-115686,64738,232604,39473
1016299,-115051,-106641,39657,318265,165161,-115560,226340,-120403,-115612,64759,232619,39423
1016300,-115073,-106614,39647,318313,165181,-115540,226386,-120382,-115593,64738,232607,39413
1016301,-115051,-106588,39688,318376,165204,-115548,226431,-120349,-115599,64732,232488,39455
1016302,-114991,-106544,39715,318423,165224,-115543,226475,-120291,-115596,64726,232379,39480
1016303,-114952,-106514,39767,318477,165190,-115559,226539,-120251,-115609,64747,232338,39533
1016304,-114918,-106489,39834,318505,165232,-115562,226546,-120248,-115611,64772,232398,39601
1016305,-114901,-106481,39861,318504,165258,-115548,226535,-120234,-115600,64855,232543,39626
1016306,-114889,-106491,39873,318534,165302,-115474,226525,-120215,-115527,64948,232655,39639
1016307,-114893,-106482,39847,318552,165340,-115399,226520,-120217,-115453,65011,232728,39612
1016308,-114840,-106464,39857,318594,165382,-115355,226575,-120188,-115410,65022,232754,39620
1016309,-114787,-106447,39859,318544,165351,-115337,226599,-120179,-115388,64968,232867,39622
1016310,-114799,-106459,39865,318498,165262,-115343,226607,-120185,-115395,64956,232980,39634
1016311,-114832,-106478,39853,318464,165281,-115387,226582,-120195,-115440,64939,232988,39618
1016312,-114845,-106496,39843,318415,165269,-115475,226587,-120222,-115528,64953,232890,39608
1016313,-114882,-106511,39822,318429,165204,-115517,226544,-120257,-115571,64945,232775,39590
1016314,-114904,-106519,39837,318407,165152,-115540,226469,-120264,-115590,64882,232692,39603
1016315,-114914,-106522,39821,318365,165147,-115534,226436,-120283,-115588,64766,232686,39585
1016316,-114954,-106547,39804,318353,165113,-115502,226388,-120296,-115557,64718,232606,39570
1016317,-114974,-106524,39809,318391,165165,-115488,226367,-120320,-115540,64677,232443,39572
1016318,-114997,-106502,39817,318439,165226,-115494,226337,-120337,-115546,64607,232299,39582
1016319,-115050,-106524,39790,318387,165288,-115495,226308,-120349,-115548,64617,232448,39556
1016320,-115057,-106519,39787,318357,165305,-115513,226296,-120342,-115570,64704,232553,39553
1016321,-115046,-106511,39804,318393,165267,-115560,226332,-120338,-115613,64736,232635,39572
1016322,-115019,-106507,39845,318471,165251,-115556,226346,-120319,-115608,64759,232683,39610
1016323,-114984,-106495,39863,318487,165287,-115564,226382,-120301,-115616,64814,232765,39625
1016324,-114911,-106484,39882,318480,165321,-115547,226413,-120279,-115603,64813,232840,39644
1016325,-114870,-106468,39892,318524,165341,-115491,226444,-120245,-115544,64857,232829,39658
1016326,-114845,-106445,39922,318584,165371,-115425,226496,-120232,-115479,64922,232847,39688
1016327,-114806,-106411,39966,318667,165358,-115399,226553,-120205,-115453,64926,232804,39737
1016328,-114776,-106380,40008,318725,165379,-115375,226556,-120207,-115428,64910,232864,39770
1016329,-114780,-106362,40041,318681,165457,-115361,226488,-120179,-115411,64895,232974,39808
1016330,-114761,-106361,40044,318685,165447,-115415,226509,-120195,-115467,64870,232996,39807
1016331,-114775,-106363,40022,318710,165414,-115487,226489,-120234,-115543,64839,232957,39786
1016332,-114807,-106398,39991,318723,165446,-115522,226376,-120262,-115576,64895,232889,39754
1016333,-114865,-106415,39930,318700,165354,-115534,226342,-120261,-115586,64907,232845,39698
1016334,-114867,-106435,39910,318656,165329,-115534,226239,-120289,-115585,64908,232761,39674
1016335,-114868,-106465,39913,318561,165336,-115516,226136,-120296,-115570,64904,232726,39678
1016336,-114871,-106471,39912,318452,165309,-115521,226128,-120276,-115575,64894,232626,39678
1016337,-114906,-106468,39873,318447,165321,-115566,226174,-120265,-115619,64857,232525,39639
1016338,-114929,-106462,39817,318436,165346,-115615,226221,-120272,-115668,64807,232452,39581
1016339,-114960,-106468,39786,318446,165307,-115613,226270,-120276,-115665,64796,232520,39551
1016340,-114958,-106449,39770,318475,165221,-115582,226346,-120266,-115633,64831,232499,39536
1016341,-114935,-106427,39777,318478,165150,-115517,226449,-120256,-115568,64916,232369,39542
1016342,-114891,-106410,39812,318519,165169,-115507,226477,-120264,-115562,64943,232380,39573
1016343,-114871,-106422,39873,318498,165280,-115502,226490,-120301,-115556,64870,232616,39638
1016344,-114895,-106421,39957,318460,165286,-115504,226531,-120283,-115559,64860,232828,39724
1016345,-114908,-106398,40016,318500,165193,-115441,226581,-120241,-115496,64931,232882,39782
1016346,-114850,-106347,40076,318630,165271,-115392,226632,-120201,-115443,64919,232707,39842
1016347,-114778,-106323,40092,318747,165428,-115347,226683,-120186,-115402,64907,232461,39854
1016348,-114755,-106326,40082,318829,165607,-115332,226702,-120207,-115383,64899,232469,39846
1016349,-114770,-106331,40096,318816,165665,-115383,226636,-120257,-115437,64817,232830,39860
1016350,-114750,-106335,40091,318758,165591,-115392,226603,-120297,-115445,64762,233083,39855
1016351,-114746,-106367,40051,318808,165461,-115438,226582,-120294,-115493,64768,233105,39814
1016352,-114783,-106380,40018,318782,165373,-115517,226529,-120312,-115571,64802,233154,39787
1016353,-114794,-106395,39996,318699,165295,-115604,226474,-120325,-115658,64872,233143,39761
1016354,-114821,-106405,39957,318545,165199,-115593,226451,-120322,-115646,64951,233086,39719
1016355,-114839,-106405,39929,318467,165171,-115572,226398,-120329,-115625,64975,233019,39695
1016356,-114869,-106412,39917,318475,165213,-115563,226343,-120366,-115617,64920,232853,39683
1016357,-114882,-106428,39921,318495,165267,-115582,226331,-120407,-115634,64889,232765,39688
1016358,-114894,-106423,39950,318541,165323,-115582,226286,-120410,-115633,64841,232576,39716
1016359,-114879,-106415,40029,318582,165367,-115569,226292,-120394,-115625,64811,232334,39794
1016360,-114884,-106390,40073,318633,165452,-115553,226256,-120356,-115607,64827,232206,39836
1016361,-114847,-106377,40072,318663,165413,-115562,226192,-120350,-115613,64812,232412,39837
1016362,-114821,-106357,40059,318719,165324,-115541,226192,-120335,-115591,64824,232627,39826
1016363,-114816,-106356,40069,318644,165394,-115513,226219,-120308,-115566,64900,232782,39834
1016364,-114820,-106345,40065,318614,165563,-115475,226210,-120301,-115527,64916,232890,39831
1016365,-114803,-106322,40090,318665,165647,-115486,226267,-120277,-115541,64921,232901,39855
1016366,-114764,-106295,40106,318738,165724,-115484,226375,-120258,-115537,64930,232930,39876
1016367,-114702,-106256,40116,318810,165771,-115494,226484,-120269,-115547,64877,232881,39880
1016368,-114658,-106224,40142,318890,165770,-115482,226561,-120250,-115537,64883,232872,39906
1016369,-114663,-106210,40177,318907,165748,-115451,226616,-120207,-115504,64933,232778,39943
1016370,-114644,-106199,40183,318856,165686,-115441,226676,-120186,-115492,64969,232667,39947
1016371,-114618,-106199,40167,318835,165613,-115452,226660,-120238,-115504,64928,232709,39934
1016372,-114622,-106204,40151,318875,165483,-115440,226638,-120239,-115494,64846,232681,39914
1016373,-114659,-106220,40128,318908,165388,-115471,226609,-120266,-115523,64837,232646,39892
1016374,-114715,-106251,40076,318871,165412,-115558,226598,-120291,-115611,64792,232710,39840
1016375,-114737,-106275,40048,318760,165450,-115641,226578,-120304,-115698,64832,232790,39816
1016376,-114750,-106288,40035,318664,165511,-115711,226546,-120305,-115767,64796,232767,39798
1016377,-114758,-106302,40023,318635,165538,-115708,226520,-120305,-115765,64793,232825,39788
1016378,-114761,-106301,40052,318657,165520,-115659,226441,-120307,-115711,64767,232878,39812
1016379,-114735,-106285,40099,318740,165441,-115585,226345,-120316,-115638,64767,232909,39861
1016380,-114727,-106271,40146,318794,165426,-115508,226296,-120300,-115561,64800,232959,39909
1016381,-114722,-106239,40184,318845,165315,-115439,226377,-120267,-115494,64816,232949,39947
1016382,-114713,-106219,40222,318894,165336,-115426,226458,-120243,-115479,64854,232941,39990
1016383,-114673,-106202,40242,318927,165387,-115416,226500,-120217,-115468,64894,232942,40006
1016384,-114650,-106205,40207,318939,165438,-115361,226593,-120167,-115414,65014,232913,39970
1016385,-114627,-106189,40209,318908,165513,-115357,226665,-120144,-115411,65115,232947,39974
1016386,-114579,-106151,40202,318854,165631,-115360,226716,-120129,-115411,65163,233054,39966
1016387,-114547,-106126,40218,318778,165752,-115376,226754,-120130,-115432,65149,233144,39982
1016388,-114517,-106120,40262,318813,165813,-115398,226771,-120132,-115454,65155,233231,40029
1016389,-114508,-106124,40295,318903,165861,-115417,226772,-120117,-115471,65152,233197,40062
1016390,-114508,-106145,40330,318924,165841,-115408,226764,-120118,-115462,65162,233093,40092
1016391,-114512,-106137,40328,318918,165743,-115423,226709,-120145,-115473,65135,233072,40093
1016392,-114545,-106167,40315,318900,165630,-115401,226657,-120166,-115455,65078,233058,40080
1016393,-114594,-106163,40295,318932,165591,-115438,226625,-120207,-115494,65018,232968,40058
1016394,-114628,-106183,40273,318907,165681,-115441,226599,-120213,-115494,65016,232663,40037
1016395,-114639,-106196,40252,318873,165695,-115472,226600,-120245,-115527,64981,232514,40014
1016396,-114678,-106216,40218,318825,165693,-115513,226562,-120279,-115567,64917,232561,39983
1016397,-114718,-106220,40193,318788,165678,-115498,226565,-120285,-115553,64926,232493,39958
1016398,-114740,-106233,40173,318838,165627,-115503,226501,-120305,-115556,64875,232545,39937
1016399,-114750,-106234,40182,318877,165606,-115477,226454,-120307,-115530,64828,232624,39947
1016400,-114737,-106231,40176,318883,165563,-115412,226466,-120282,-115469,64839,232558,39939
1016401,-114711,-106214,40182,318868,165475,-115369,226480,-120270,-115425,64893,232536,39947
1016402,-114684,-106189,40178,318860,165425,-115367,226531,-120246,-115419,64883,232663,39944
1016403,-114642,-106182,40168,318824,165497,-115423,226552,-120257,-115476,64891,232858,39934
1016404,-114619,-106169,40159,318812,165566,-115441,226512,-120235,-115494,64941,232955,39924
1016405,-114598,-106158,40190,318796,165620,-115420,226483,-120213,-115473,64938,233095,39955
1016406,-114606,-106165,40235,318823,165678,-115401,226482,-120186,-115454,64994,233275,40000
1016407,-114594,-106165,40282,318870,165694,-115394,226554,-120192,-115448,65044,233340,40044
1016408,-114585,-106157,40308,318924,165694,-115374,226622,-120187,-115427,65074,233334,40072
1016409,-114561,-106149,40322,319004,165632,-115385,226628,-120175,-115439,65060,233339,40087
1016410,-114575,-106152,40307,319025,165565,-115377,226590,-120189,-115430,65093,233363,40072
1016411,-114610,-106165,40240,318910,165522,-115368,226588,-120177,-115422,65134,233364,40004
1016412,-114646,-106181,40169,318762,165432,-115386,226632,-120196,-115437,65130,233328,39935
1016413,-114652,-106176,40156,318721,165410,-115420,226547,-120236,-115472,65094,233218,39919
1016414,-114693,-106200,40158,318625,165440,-115404,226503,-120223,-115460,65096,233092,39924
1016415,-114725,-106226,40140,318602,165586,-115441,226488,-120243,-115494,65036,232905,39903
1016416,-114781,-106247,40144,318709,165554,-115468,226430,-120276,-115523,64969,232837,39909
1016417,-114851,-106237,40190,318805,165506,-115488,226431,-120272,-115540,64880,232768,39954
1016418,-114869,-106242,40227,318784,165525,-115529,226430,-120255,-115584,64809,232659,39991
1016419,-114846,-106239,40209,318733,165576,-115607,226479,-120252,-115659,64778,232667,39975
1016420,-114818,-106245,40189,318717,165604,-115585,226477,-120215,-115638,64755,232675,39951
1016421,-114780,-106228,40175,318747,165634,-115535,226433,-120188,-115586,64779,232645,39939
1016422,-114738,-106225,40177,318774,165632,-115504,226369,-120171,-115553,64826,232659,39943
1016423,-114679,-106210,40222,318806,165572,-115479,226383,-120165,-115532,64876,232704,39987
1016424,-114657,-106222,40251,318819,165444,-115424,226436,-120196,-115478,65021,232821,40016
1016425,-114625,-106224,40282,318875,165359,-115395,226512,-120162,-115450,65082,232802,40047
1016426,-114606,-106188,40296,318864,165365,-115315,226584,-120114,-115370,65187,232779,40060
1016427,-114589,-106167,40259,318807,165392,-115298,226615,-120088,-115349,65249,232813,40027
1016428,-114570,-106152,40252,318888,165551,-115329,226630,-120073,-115380,65194,232833,40015
1016429,-114600,-106170,40264,318973,165691,-115360,226638,-120129,-115414,65191,232875,40028
1016430,-114619,-106181,40256,319027,165693,-115404,226597,-120143,-115458,65089,232937,40023
1016431,-114650,-106219,40248,318993,165733,-115471,226602,-120176,-115526,65026,233033,40013
1016432,-114696,-106242,40247,318974,165751,-115531,226573,-120216,-115587,64977,232955,40011
1016433,-114720,-106236,40237,318937,165752,-115578,226552,-120233,-115632,64901,232803,40003
1016434,-114755,-106272,40216,318836,165770,-115572,226486,-120243,-115626,64859,232774,39979
1016435,-114794,-106295,40194,318760,165849,-115599,226405,-120307,-115655,64811,232814,39963
1016436,-114851,-106329,40178,318692,165842,-115609,226350,-120340,-115663,64805,232831,39945
1016437,-114874,-106356,40136,318629,165757,-115561,226346,-120352,-115612,64828,232910,39902
1016438,-114889,-106370,40099,318564,165587,-115531,226346,-120362,-115582,64864,232948,39867
1016439,-114888,-106360,40063,318549,165491,-115507,226359,-120348,-115559,64907,232952,39830
1016440,-114868,-106355,39987,318566,165447,-115454,226390,-120301,-115507,64951,232930,39752
1016441,-114858,-106344,39987,318675,165464,-115439,226309,-120309,-115495,64954,232957,39752
1016442,-114813,-106323,39951,318802,165455,-115428,226303,-120272,-115485,64983,232951,39715
1016443,-114798,-106319,40022,318860,165451,-115425,226382,-120239,-115475,65011,232861,39787
1016444,-114799,-106314,40103,318924,165474,-115444,226398,-120217,-115497,64995,232908,39870
1016445,-114751,-106288,40178,318884,165534,-115453,226395,-120211,-115504,64985,232988,39943
1016446,-114687,-106255,40240,318917,165636,-115413,226442,-120188,-115466,64971,232901,40003
1016447,-114675,-106220,40290,318945,165673,-115348,226536,-120145,-115402,64924,232749,40053
1016448,-114647,-106199,40300,318967,165631,-115301,226581,-120145,-115352,64911,232834,40067
1016449,-114672,-106195,40311,319007,165560,-115296,226465,-120133,-115348,64956,233056,40078
1016450,-114713,-106207,40312,319018,165435,-115304,226449,-120133,-115354,65014,233139,40079
1016451,-114740,-106228,40265,318984,165381,-115343,226523,-120157,-115398,65040,233090,40028
1016452,-114770,-106249,40243,318953,165285,-115361,226513,-120155,-115415,65059,232948,40009
1016453,-114796,-106257,40225,318870,165234,-115372,226450,-120192,-115424,65050,232886,39994
1016454,-114820,-106286,40197,318728,165330,-115392,226398,-120206,-115445,64964,232790,39961
1016455,-114845,-106312,40191,318671,165469,-115428,226400,-120211,-115479,64873,232679,39959
1016456,-114890,-106335,40177,318654,165439,-115486,226365,-120236,-115535,64846,232644,39945
1016457,-114917,-106361,40133,318680,165418,-115519,226315,-120280,-115574,64841,232751,39899
1016458,-114923,-106353,40117,318740,165379,-115549,226237,-120313,-115602,64796,232781,39882
1016459,-114918,-106374,40103,318707,165392,-115577,226212,-120297,-115627,64812,232826,39873
1016460,-114926,-106364,40073,318663,165432,-115650,226260,-120279,-115701,64822,232942,39841
1016461,-114942,-106369,40053,318602,165510,-115641,226284,-120265,-115695,64848,233005,39815
1016462,-114941,-106382,40056,318675,165587,-115631,226319,-120265,-115681,64885,232967,39821
1016463,-114929,-106369,40061,318740,165721,-115585,226393,-120267,-115640,64899,232817,39825
1016464,-114873,-106319,40118,318807,165783,-115520,226464,-120267,-115571,64898,232600,39887
1016465,-114813,-106281,40190,318884,165772,-115469,226532,-120254,-115520,64930,232386,39957
1016466,-114752,-106241,40203,318940,165645,-115424,226556,-120212,-115476,64985,232453,39969
1016467,-114742,-106237,40216,319036,165516,-115415,226504,-120199,-115467,64997,232703,39982
1016468,-114741,-106213,40225,319078,165392,-115391,226518,-120168,-115443,65035,232887,39989
1016469,-114747,-106214,40243,319082,165247,-115392,226572,-120157,-115443,65082,232964,40006
1016470,-114759,-106221,40238,318980,165334,-115398,226578,-120166,-115448,65082,232951,40001
1016471,-114778,-106228,40209,318784,165421,-115381,226589,-120158,-115432,65039,232837,39976
1016472,-114777,-106247,40175,318701,165428,-115423,226579,-120174,-115478,64993,232728,39940
1016473,-114787,-106279,40130,318678,165401,-115472,226533,-120209,-115528,64992,232649,39896
1016474,-114813,-106309,40065,318678,165460,-115516,226473,-120235,-115571,64921,232550,39827
1016475,-114864,-106342,40029,318656,165513,-115576,226398,-120275,-115628,64820,232712,39795
1016476,-114946,-106387,40014,318620,165566,-115612,226289,-120318,-115665,64749,232827,39778
1016477,-114967,-106393,40026,318661,165548,-115590,226253,-120344,-115642,64772,232757,39794
1016478,-115016,-106431,40007,318629,165464,-115559,226196,-120362,-115612,64852,232793,39774
1016479,-115017,-106443,39976,318609,165458,-115527,226093,-120373,-115584,64878,232886,39742
1016480,-115020,-106424,39972,318613,165521,-115510,226047,-120353,-115566,64867,232917,39734
1016481,-114984,-106401,39951,318548,165510,-115481,226086,-120328,-115533,64827,232990,39718
1016482,-114966,-106392,39988,318535,165458,-115485,226214,-120311,-115538,64832,232958,39753
1016483,-114970,-106364,40020,318585,165463,-115486,226294,-120276,-115537,64851,232971,39787
1016484,-114952,-106353,40038,318650,165491,-115472,226329,-120240,-115523,64848,232995,39802
1016485,-114910,-106338,40091,318726,165558,-115462,226376,-120235,-115515,64776,232993,39855
1016486,-114814,-106312,40138,318802,165605,-115466,226447,-120227,-115520,64789,232943,39905
1016487,-114769,-106292,40145,318817,165612,-115419,226528,-120192,-115473,64860,232810,39908
1016488,-114703,-106264,40150,318837,165531,-115391,226571,-120167,-115445,64951,232746,39918
1016489,-114687,-106248,40176,318837,165523,-115389,226529,-120174,-115442,64951,232788,39940
1016490,-114710,-106257,40166,318780,165570,-115408,226516,-120197,-115462,64944,232855,39929
1016491,-114717,-106257,40168,318757,165560,-115456,226478,-120202,-115511,64976,232745,39932
1016492,-114700,-106273,40192,318703,165506,-115547,226449,-120189,-115599,64895,232664,39957
1016493,-114716,-106300,40158,318666,165462,-115607,226368,-120176,-115661,64830,232606,39922
1016494,-114760,-106325,40131,318732,165400,-115628,226333,-120192,-115680,64823,232501,39897
1016495,-114803,-106332,40116,318791,165346,-115612,226299,-120224,-115665,64797,232400,39880
1016496,-114855,-106351,40071,318724,165269,-115558,226254,-120242,-115611,64809,232386,39835
1016497,-114918,-106388,40011,318625,165228,-115490,226255,-120277,-115544,64806,232553,39777
1016498,-114966,-106396,39968,318630,165209,-115481,226238,-120340,-115537,64713,232682,39734
1016499,-114979,-106408,39919,318620,165233,-115494,226205,-120338,-115547,64752,232727,39682
1016500,-114970,-106410,39908,318571,165230,-115484,226226,-120315,-115538,64837,232756,39673
1016501,-114992,-106415,39927,318607,165155,-115495,226261,-120298,-115550,64902,232865,39692
1016502,-115010,-106415,39941,318629,165219,-115478,226302,-120268,-115531,64868,232936,39706
1016503,-114985,-106408,40006,318697,165213,-115489,226300,-120250,-115540,64881,233016,39772
1016504,-114924,-106386,40045,318752,165187,-115502,226318,-120229,-115556,64847,233131,39811
1016505,-114890,-106368,40080,318734,165272,-115454,226359,-120205,-115504,64852,233151,39844
1016506,-114849,-106331,40131,318776,165377,-115439,226402,-120193,-115491,64913,232992,39900
1016507,-114803,-106308,40169,318838,165445,-115451,226462,-120194,-115504,64951,232888,39935
1016508,-114810,-106298,40146,318896,165529,-115434,226505,-120167,-115488,65016,232876,39911
1016509,-114805,-106268,40150,318895,165581,-115433,226525,-120169,-115486,65060,232810,39916
1016510,-114801,-106261,40152,318798,165567,-115407,226520,-120176,-115461,65091,232797,39919
1016511,-114784,-106257,40157,318644,165625,-115392,226463,-120177,-115442,65042,232710,39921
1016512,-114787,-106258,40177,318688,165668,-115408,226372,-120207,-115463,64997,232483,39939
1016513,-114845,-106321,40156,318663,165563,-115422,226282,-120226,-115478,64934,232563,39926
1016514,-114914,-106363,40121,318735,165492,-115468,226193,-120275,-115523,64839,232778,39886
1016515,-114982,-106415,40051,318674,165522,-115516,226102,-120295,-115569,64843,232914,39820
1016516,-115035,-106456,39981,318632,165557,-115556,226137,-120318,-115607,64804,232874,39747
1016517,-115047,-106461,39949,318641,165473,-115535,226116,-120295,-115588,64798,232824,39711
1016518,-115057,-106460,39961,318639,165429,-115554,226097,-120312,-115607,64770,232741,39727
1016519,-115028,-106460,39953,318598,165432,-115566,226171,-120331,-115618,64755,232675,39721
1016520,-115002,-106466,39975,318591,165442,-115559,226232,-120337,-115610,64768,232630,39741
1016521,-114995,-106456,40011,318627,165450,-115534,226279,-120328,-115588,64797,232577,39775
1016522,-114927,-106427,40006,318670,165466,-115517,226330,-120317,-115571,64752,232586,39772
1016523,-114904,-106378,40026,318746,165536,-115516,226336,-120310,-115568,64732,232570,39791
1016524,-114882,-106360,40029,318810,165567,-115491,226293,-120286,-115543,64789,232512,39796
1016525,-114829,-106335,40071,318852,165509,-115470,226287,-120248,-115522,64854,232533,39838
1016526,-114787,-106329,40112,318887,165475,-115451,226322,-120205,-115506,64920,232598,39879
1016527,-114814,-106315,40181,318952,165449,-115446,226381,-120176,-115497,64920,232681,39947
1016528,-114803,-106301,40200,318912,165390,-115439,226432,-120153,-115494,64992,232828,39964
1016529,-114767,-106297,40220,318923,165249,-115442,226448,-120154,-115497,64997,232943,39983
1016530,-114747,-106287,40211,318896,165192,-115411,226514,-120154,-115467,64949,232863,39975
1016531,-114769,-106318,40166,318784,165378,-115439,226564,-120187,-115489,64881,232777,39933
1016532,-114809,-106350,40116,318707,165468,-115486,226542,-120229,-115541,64843,232725,39883
1016533,-114897,-106375,40125,318708,165418,-115523,226460,-120266,-115575,64813,232731,39886
1016534,-114921,-106394,40076,318733,165366,-115548,226386,-120306,-115602,64817,232680,39841
1016535,-114931,-106437,40043,318698,165306,-115590,226361,-120349,-115643,64792,232769,39810
1016536,-114936,-106439,39995,318521,165261,-115602,226304,-120356,-115655,64701,232887,39760
1016537,-114935,-106433,39989,318388,165247,-115602,226281,-120344,-115655,64728,232851,39754
1016538,-114986,-106458,39957,318323,165322,-115571,226276,-120340,-115624,64760,232769,39723
1016539,-115007,-106455,39950,318346,165427,-115572,226233,-120346,-115626,64777,232676,39715
1016540,-115007,-106453,39922,318430,165525,-115572,226222,-120345,-115627,64800,232622,39685
1016541,-114990,-106479,39928,318559,165589,-115587,226215,-120367,-115640,64789,232648,39691
1016542,-115017,-106462,39979,318663,165630,-115610,226212,-120366,-115667,64787,232715,39746
1016543,-114998,-106410,40059,318636,165565,-115678,226253,-120301,-115731,64835,232767,39827
1016544,-114960,-106392,40149,318620,165496,-115664,226298,-120260,-115718,64863,232813,39914
1016545,-114916,-106362,40203,318653,165462,-115647,226349,-120219,-115699,64836,232853,39970
1016546,-114867,-106351,40228,318740,165467,-115582,226411,-120187,-115633,64830,232883,39992
1016547,-114831,-106350,40197,318766,165555,-115538,226445,-120196,-115588,64842,232949,39962
1016548,-114818,-106328,40197,318819,165681,-115440,226415,-120207,-115492,64882,232926,39960
1016549,-114805,-106312,40171,318878,165738,-115413,226348,-120263,-115466,64932,232946,39934
1016550,-114811,-106312,40146,318898,165662,-115394,226309,-120285,-115450,64967,232995,39910
1016551,-114820,-106324,40142,318893,165551,-115395,226333,-120290,-115450,64998,232860,39908
1016552,-114839,-106339,40110,318855,165491,-115391,226323,-120281,-115445,64998,232664,39870
1016553,-114891,-106345,40135,318849,165479,-115455,226271,-120318,-115508,64898,232630,39898
1016554,-114941,-106343,40178,318897,165482,-115536,226157,-120364,-115593,64774,232638,39939
1016555,-114985,-106375,40115,318911,165479,-115600,226180,-120398,-115653,64752,232585,39881
1016556,-114969,-106376,40044,318850,165398,-115640,226174,-120415,-115693,64749,232542,39809
1016557,-114964,-106367,40019,318781,165466,-115640,226126,-120385,-115692,64720,232441,39784
1016558,-114947,-106361,39982,318635,165379,-115597,226117,-120326,-115649,64693,232382,39747
1016559,-114965,-106378,39955,318589,165357,-115579,226082,-120320,-115634,64664,232483,39723
1016560,-114956,-106407,39939,318555,165398,-115562,226087,-120348,-115616,64591,232728,39705
1016561,-114964,-106412,39943,318557,165300,-115544,226131,-120348,-115598,64663,232837,39707
1016562,-114947,-106422,39986,318567,165252,-115531,226141,-120342,-115584,64772,232934,39752
1016563,-114904,-106409,39978,318561,165308,-115547,226199,-120336,-115597,64842,232971,39741
1016564,-114874,-106412,39974,318558,165457,-115575,226295,-120334,-115627,64854,232939,39741
1016565,-114846,-106412,40006,318573,165509,-115546,226402,-120310,-115598,64932,232862,39774
1016566,-114845,-106408,40017,318611,165631,-115533,226438,-120295,-115587,64986,232943,39781
1016567,-114827,-106386,40095,318707,165699,-115556,226445,-120309,-115610,64901,233044,39863
1016568,-114799,-106356,40144,318788,165705,-115519,226472,-120290,-115576,64814,233037,39911
1016569,-114790,-106335,40159,318845,165610,-115475,226526,-120250,-115528,64799,232967,39927
1016570,-114783,-106323,40160,318871,165527,-115486,226540,-120235,-115539,64806,232887,39925
1016571,-114805,-106316,40128,318827,165394,-115513,226481,-120238,-115566,64854,232914,39893
1016572,-114814,-106335,40089,318822,165311,-115532,226337,-120239,-115585,64894,232918,39851
1016573,-114868,-106372,40043,318746,165340,-115554,226219,-120269,-115606,64932,232893,39809
1016574,-114894,-106378,40037,318706,165292,-115552,226230,-120290,-115607,64919,232700,39800
1016575,-114860,-106373,40079,318745,165322,-115582,226230,-120314,-115633,64856,232381,39844
1016576,-114887,-106392,40082,318757,165365,-115574,226172,-120331,-115626,64857,232142,39845
1016577,-114929,-106420,40060,318682,165461,-115598,226126,-120353,-115650,64778,232208,39826
1016578,-114961,-106424,40063,318557,165417,-115619,226139,-120382,-115671,64694,232386,39830
1016579,-114980,-106439,40003,318499,165388,-115618,226166,-120390,-115672,64767,232466,39768
1016580,-114999,-106446,39933,318486,165495,-115642,226144,-120390,-115697,64806,232614,39699
1016581,-115001,-106448,39924,318580,165603,-115742,226150,-120395,-115793,64770,232716,39693
1016582,-114960,-106433,39937,318625,165598,-115763,226203,-120363,-115818,64764,232775,39700
1016583,-114918,-106412,39985,318679,165538,-115720,226244,-120324,-115773,64790,232743,39747
1016584,-114896,-106397,40034,318712,165505,-115649,226267,-120304,-115699,64778,232856,39798
1016585,-114900,-106382,40026,318715,165525,-115581,226268,-120300,-115636,64837,232908,39796
1016586,-114886,-106352,40069,318765,165582,-115488,226293,-120314,-115538,64902,232947,39835
1016587,-114883,-106320,40124,318805,165586,-115470,226299,-120325,-115520,64945,233009,39891
1016588,-114868,-106308,40155,318810,165626,-115464,226357,-120303,-115514,64975,233044,39919
1016589,-114876,-106307,40180,318812,165678,-115475,226377,-120303,-115531,64990,233044,39944
1016590,-114865,-106328,40177,318771,165613,-115467,226382,-120297,-115519,64993,233108,39947
1016591,-114873,-106325,40194,318774,165477,-115466,226373,-120294,-115520,64963,233087,39960
1016592,-114862,-106307,40183,318704,165486,-115486,226336,-120295,-115540,64865,232967,39948
1016593,-114861,-106322,40139,318568,165512,-115513,226302,-120310,-115563,64843,232791,39905
1016594,-114848,-106338,40106,318562,165415,-115542,226302,-120307,-115595,64812,232608,39872
1016595,-114865,-106345,40070,318623,165289,-115576,226275,-120303,-115630,64786,232511,39836
1016596,-114879,-106356,40023,318691,165193,-115562,226197,-120282,-115613,64761,232387,39790
1016597,-114882,-106388,39983,318719,165246,-115577,226151,-120296,-115631,64672,232366,39747
1016598,-114934,-106414,39942,318676,165354,-115629,226153,-120344,-115683,64587,232430,39705
1016599,-114970,-106437,39952,318574,165424,-115633,226130,-120357,-115684,64622,232485,39717
1016600,-114964,-106433,39982,318539,165472,-115578,226156,-120348,-115631,64670,232479,39747
1016601,-114945,-106421,40010,318551,165538,-115581,226222,-120346,-115634,64714,232429,39777
1016602,-114936,-106404,40026,318592,165536,-115608,226210,-120359,-115662,64750,232624,39791
1016603,-114921,-106410,40022,318561,165512,-115623,226246,-120352,-115675,64807,232790,39789
1016604,-114906,-106406,40004,318605,165541,-115602,226292,-120329,-115654,64864,232825,39768
1016605,-114869,-106377,40028,318692,165544,-115578,226333,-120328,-115630,64874,232861,39792
1016606,-114831,-106360,40059,318694,165537,-115498,226387,-120298,-115553,64907,232900,39827
1016607,-114790,-106333,40091,318747,165472,-115476,226419,-120282,-115529,64955,232932,39860
1016608,-114754,-106323,40159,318806,165443,-115481,226408,-120287,-115534,65028,233014,39924
1016609,-114764,-106314,40181,318846,165557,-115495,226356,-120289,-115547,65043,233058,39945
1016610,-114787,-106338,40124,318876,165627,-115491,226328,-120299,-115546,65033,233047,39890
1016611,-114797,-106361,40056,318834,165677,-115474,226310,-120306,-115526,64975,233043,39820
1016612,-114823,-106358,40073,318790,165648,-115479,226292,-120314,-115532,64888,232893,39839
1016613,-114811,-106354,40067,318734,165627,-115485,226298,-120316,-115540,64865,232582,39834
1016614,-114816,-106352,40068,318679,165508,-115479,226270,-120323,-115534,64806,232451,39833
1016615,-114832,-106359,40065,318684,165493,-115504,226216,-120353,-115555,64677,232487,39831
1016616,-114884,-106389,40034,318671,165472,-115502,226227,-120356,-115556,64653,232359,39800
1016617,-114913,-106397,40014,318683,165412,-115543,226230,-120367,-115594,64681,232285,39783
1016618,-114955,-106418,39997,318643,165317,-115557,226182,-120388,-115610,64712,232442,39764
1016619,-114960,-106434,39978,318583,165248,-115582,226162,-120395,-115637,64738,232559,39745
1016620,-114938,-106426,39985,318577,165112,-115561,226188,-120339,-115616,64832,232558,39751
1016621,-114919,-106408,40014,318619,165048,-115574,226194,-120324,-115628,64871,232635,39783
1016622,-114914,-106393,40038,318658,165164,-115568,226150,-120328,-115621,64837,232750,39803
1016623,-114921,-106407,40028,318592,165270,-115514,226127,-120295,-115566,64888,232935,39794
1016624,-114939,-106403,39995,318574,165292,-115455,226166,-120266,-115506,64935,233081,39759
1016625,-114893,-106374,39985,318651,165445,-115484,226162,-120241,-115538,64911,233070,39749
1016626,-114812,-106325,40036,318757,165615,-115508,226156,-120179,-115561,64925,232901,39799
1016627,-114800,-106310,40090,318820,165742,-115509,226185,-120164,-115563,64900,232874,39854
1016628,-114776,-106300,40168,318889,165820,-115507,226267,-120167,-115562,64829,232927,39933
1016629,-114817,-106307,40217,318934,165864,-115469,226256,-120168,-115523,64834,232936,39981
1016630,-114836,-106302,40196,318960,165859,-115430,226268,-120188,-115479,64800,232890,39958
1016631,-114892,-106335,40165,318876,165792,-115363,226251,-120244,-115419,64890,232927,39929
1016632,-114902,-106366,40119,318802,165640,-115391,226264,-120285,-115441,64917,232945,39886
1016633,-114911,-106394,40085,318754,165447,-115386,226287,-120305,-115438,64970,232880,39851
1016634,-114947,-106420,40074,318681,165479,-115420,226208,-120321,-115474,64959,232811,39839
1016635,-114978,-106452,40044,318636,165536,-115435,226154,-120343,-115488,64909,232818,39808
1016636,-115001,-106447,40048,318548,165604,-115468,226120,-120379,-115522,64859,232770,39812
1016637,-114994,-106457,40046,318465,165591,-115496,226093,-120376,-115548,64845,232716,39811
1016638,-114987,-106452,40057,318450,165546,-115520,226062,-120379,-115572,64822,232678,39823
1016639,-114973,-106448,40054,318477,165498,-115562,226092,-120385,-115615,64830,232646,39820
1016640,-114977,-106459,40044,318523,165426,-115553,226126,-120375,-115607,64872,232654,39806
1016641,-114958,-106467,40045,318629,165382,-115537,226163,-120368,-115590,64890,232713,39809
1016642,-114938,-106459,40033,318685,165385,-115494,226193,-120327,-115551,64856,232806,39795
1016643,-114927,-106452,40000,318669,165350,-115423,226266,-120276,-115476,64914,232862,39764
1016644,-114900,-106450,39994,318633,165395,-115403,226295,-120238,-115455,64984,232892,39759
1016645,-114847,-106425,40049,318661,165373,-115346,226340,-120183,-115399,65021,232833,39814
1016646,-114795,-106391,40147,318675,165357,-115314,226392,-120148,-115368,65059,232849,39912
1016647,-114776,-106365,40187,318622,165287,-115289,226391,-120149,-115343,65072,233078,39953
1016648,-114753,-106344,40239,318729,165328,-115314,226362,-120155,-115367,65091,233142,40006
1016649,-114756,-106325,40240,318770,165440,-115341,226364,-120148,-115396,65108,233127,40003
1016650,-114758,-106319,40207,318806,165645,-115391,226351,-120175,-115442,65115,232952,39973
1016651,-114762,-106345,40160,318838,165742,-115436,226354,-120196,-115490,65037,232832,39926
1016652,-114797,-106357,40112,318884,165736,-115481,226283,-120248,-115535,64936,232850,39878
1016653,-114822,-106393,40074,318847,165729,-115512,226245,-120287,-115566,64846,232939,39838
1016654,-114860,-106435,40043,318779,165604,-115467,226243,-120307,-115521,64845,232866,39807
1016655,-114889,-106437,40042,318774,165549,-115484,226201,-120354,-115536,64847,232790,39804
1016656,-114921,-106469,40039,318712,165538,-115527,226110,-120391,-115579,64846,232783,39806
1016657,-114959,-106481,40046,318589,165562,-115560,226126,-120399,-115613,64864,232777,39810
1016658,-114987,-106497,40045,318588,165532,-115584,226128,-120428,-115640,64878,232734,39809
1016659,-114998,-106485,40034,318640,165485,-115584,226098,-120453,-115638,64879,232734,39799
1016660,-114981,-106481,40029,318647,165521,-115551,226096,-120439,-115601,64865,232739,39796
1016661,-114953,-106462,40026,318630,165645,-115528,226128,-120431,-115582,64856,232710,39790
1016662,-114933,-106457,39997,318672,165759,-115498,226145,-120419,-115552,64865,232736,39758
1016663,-114926,-106431,40010,318766,165833,-115489,226184,-120391,-115541,64869,232738,39777
1016664,-114881,-106397,40044,318841,165843,-115462,226205,-120368,-115516,64906,232635,39810
1016665,-114820,-106359,40130,318911,165683,-115449,226236,-120309,-115501,64937,232584,39893
1016666,-114753,-106309,40243,318967,165462,-115470,226257,-120248,-115526,64998,232734,40009
1016667,-114730,-106301,40326,318884,165401,-115435,226243,-120230,-115488,65062,232880,40092
1016668,-114694,-106267,40302,318856,165490,-115374,226278,-120177,-115428,65132,232765,40068
1016669,-114682,-106248,40280,318866,165563,-115349,226287,-120170,-115405,65176,232713,40047
1016670,-114697,-106279,40229,318847,165609,-115361,226214,-120225,-115414,65131,232906,39993
1016671,-114728,-106307,40199,318834,165594,-115365,226115,-120270,-115419,65117,233068,39962
1016672,-114789,-106342,40181,318790,165687,-115400,225986,-120311,-115455,65046,233142,39944
1016673,-114835,-106379,40129,318739,165711,-115410,225920,-120317,-115463,64941,233132,39893
1016674,-114879,-106416,40085,318688,165667,-115410,225890,-120313,-115463,64889,233125,39851
1016675,-114892,-106449,40078,318681,165577,-115421,225893,-120339,-115476,64890,233080,39841
1016676,-114941,-106462,40071,318691,165544,-115472,225887,-120347,-115526,64913,232925,39836
1016677,-114946,-106449,40100,318703,165563,-115468,225858,-120354,-115522,64907,232694,39863
1016678,-114970,-106451,40133,318736,165553,-115508,225801,-120397,-115562,64828,232670,39897
1016679,-114974,-106429,40189,318827,165449,-115520,225765,-120393,-115572,64817,232630,39954
1016680,-114946,-106413,40212,318799,165346,-115512,225732,-120356,-115565,64827,232755,39976
1016681,-114945,-106423,40186,318736,165355,-115476,225684,-120319,-115528,64867,232946,39948
1016682,-114886,-106402,40203,318666,165469,-115453,225710,-120297,-115507,64902,232858,39969
1016683,-114839,-106362,40243,318716,165556,-115448,225817,-120276,-115503,64950,232588,40006
1016684,-114830,-106338,40237,318794,165652,-115434,225852,-120261,-115487,65014,232527,40000
1016685,-114827,-106347,40221,318847,165660,-115439,225858,-120254,-115489,65020,232775,39986
1016686,-114811,-106344,40212,318872,165660,-115433,225942,-120242,-115486,65049,233005,39979
1016687,-114794,-106359,40186,318830,165669,-115403,226022,-120234,-115457,65133,233107,39951
1016688,-114784,-106343,40205,318889,165753,-115407,226051,-120242,-115458,65116,233253,39969
1016689,-114761,-106329,40240,318904,165733,-115417,226069,-120239,-115469,65083,233249,40001
1016690,-114767,-106310,40273,318918,165705,-115432,226080,-120250,-115484,65032,233266,40039
1016691,-114781,-106315,40264,318864,165646,-115404,226068,-120254,-115457,64994,233194,40028
1016692,-114810,-106348,40230,318728,165588,-115374,226052,-120245,-115429,65017,233070,39994
1016693,-114826,-106356,40204,318695,165577,-115392,225970,-120263,-115443,64963,233002,39972
1016694,-114841,-106386,40184,318683,165618,-115423,225856,-120282,-115478,64896,232967,39950
1016695,-114899,-106388,40164,318688,165656,-115478,225799,-120309,-115531,64896,232881,39927
1016696,-114945,-106410,40156,318650,165593,-115498,225784,-120314,-115551,64931,232771,39924
1016697,-114986,-106420,40158,318680,165467,-115519,225797,-120317,-115569,64957,232723,39923
1016698,-115000,-106451,40099,318651,165393,-115502,225783,-120341,-115557,64990,232736,39861
1016699,-115013,-106465,40060,318596,165458,-115445,225758,-120348,-115497,65041,232766,39826
1016700,-114998,-106483,40058,318598,165493,-115432,225772,-120338,-115484,65072,232750,39819
1016701,-114939,-106445,40066,318642,165498,-115425,225805,-120319,-115475,65047,232705,39832
1016702,-114913,-106443,40053,318669,165529,-115394,225841,-120314,-115448,65067,232707,39818
1016703,-114876,-106422,40029,318719,165541,-115357,225907,-120274,-115411,65000,232774,39793
1016704,-114842,-106394,40001,318726,165559,-115347,225954,-120257,-115400,65038,232822,39765
1016705,-114813,-106383,39988,318722,165593,-115315,226035,-120212,-115370,65138,232741,39753
1016706,-114758,-106351,39994,318737,165640,-115289,226111,-120156,-115341,65264,232674,39759
1016707,-114732,-106323,40069,318834,165643,-115268,226137,-120129,-115322,65252,232654,39833
1016708,-114715,-106291,40160,319012,165676,-115270,226102,-120123,-115324,65155,232639,39921
1016709,-114719,-106312,40200,319022,165711,-115281,225994,-120106,-115337,65162,232760,39964
1016710,-114753,-106329,40249,318931,165556,-115303,225957,-120089,-115358,65139,233004,40013
1016711,-114806,-106343,40262,318844,165364,-115312,226039,-120084,-115364,65069,233182,40027
1016712,-114854,-106379,40189,318765,165241,-115285,226069,-120088,-115338,65075,233128,39952
1016713,-114883,-106409,40150,318562,165228,-115272,226089,-120113,-115326,65080,233102,39911
1016714,-114923,-106462,40091,318383,165279,-115307,226092,-120142,-115361,65062,233203,39857
1016715,-114984,-106486,40080,318411,165347,-115368,226067,-120238,-115420,65047,233226,39846
1016716,-115038,-106532,40033,318497,165434,-115404,225973,-120290,-115458,65053,233163,39798
1016717,-115076,-106565,40003,318547,165521,-115419,225901,-120312,-115472,65059,233066,39771
1016718,-115101,-106585,40008,318636,165509,-115408,225845,-120344,-115461,65026,232943,39773
1016719,-115096,-106577,40063,318729,165500,-115393,225812,-120351,-115445,64962,232878,39827
1016720,-115079,-106589,40045,318694,165578,-115380,225804,-120322,-115434,64942,232958,39808
1016721,-115069,-106575,40025,318681,165668,-115377,225856,-120326,-115431,64942,233019,39790
1016722,-115042,-106545,40031,318709,165709,-115406,225907,-120321,-115458,64979,233014,39795
1016723,-115026,-106523,40072,318754,165756,-115406,225964,-120288,-115460,65050,232964,39835
1016724,-114959,-106504,40083,318759,165759,-115355,226033,-120254,-115410,65115,232908,39846
1016725,-114907,-106462,40138,318837,165728,-115339,226082,-120250,-115392,65108,232905,39902
1016726,-114879,-106413,40189,318942,165727,-115329,226122,-120233,-115381,65140,232949,39957
1016727,-114880,-106413,40214,318969,165774,-115267,226104,-120200,-115320,65211,232905,39980
1016728,-114848,-106372,40261,318986,165823,-115228,226125,-120165,-115279,65211,232884,40026
1016729,-114842,-106346,40282,318992,165784,-115216,226190,-120165,-115270,65166,232939,40048
1016730,-114837,-106359,40273,318935,165841,-115237,226185,-120184,-115289,65122,232995,40037
1016731,-114848,-106357,40276,318872,165781,-115264,226208,-120189,-115315,65073,232983,40040
1016732,-114835,-106364,40250,318857,165687,-115318,226197,-120229,-115368,65064,232951,40017
1016733,-114861,-106367,40255,318900,165517,-115369,226160,-120254,-115423,65027,232847,40022
1016734,-114848,-106384,40239,318881,165426,-115400,226117,-120273,-115453,65001,232783,40004
1016735,-114880,-106399,40186,318787,165480,-115414,226072,-120297,-115466,64958,232745,39952
1016736,-114906,-106408,40161,318664,165448,-115449,226050,-120311,-115502,64941,232703,39925
1016737,-114902,-106401,40141,318606,165342,-115470,226026,-120317,-115523,64904,232775,39906
1016738,-114913,-106412,40094,318518,165362,-115464,225958,-120316,-115515,64902,232777,39860
1016739,-114935,-106434,40088,318440,165386,-115436,225980,-120278,-115492,64860,232803,39857
1016740,-114928,-106440,40126,318494,165346,-115444,225954,-120294,-115497,64844,232943,39891
1016741,-114911,-106419,40153,318566,165386,-115475,225976,-120300,-115529,64839,232992,39919
1016742,-114916,-106430,40177,318608,165470,-115488,226039,-120293,-115541,64876,232978,39946
1016743,-114899,-106410,40186,318640,165543,-115469,226115,-120279,-115521,64930,232908,39952
1016744,-114887,-106397,40192,318651,165620,-115457,226190,-120279,-115509,64995,232870,39960
1016745,-114858,-106377,40183,318685,165709,-115435,226233,-120272,-115487,65029,232884,39950
1016746,-114803,-106369,40225,318767,165708,-115427,226302,-120219,-115481,65009,232940,39993
1016747,-114743,-106326,40271,318852,165716,-115435,226328,-120193,-115488,64933,232942,40037
1016748,-114699,-106305,40319,318887,165768,-115404,226385,-120161,-115459,64967,232788,40083
1016749,-114682,-106265,40342,318955,165777,-115367,226383,-120134,-115420,65011,232583,40110
1016750,-114710,-106267,40346,319007,165796,-115361,226337,-120173,-115415,65034,232555,40114
1016751,-114721,-106279,40259,318950,165755,-115385,226268,-120211,-115437,65031,232720,40023
1016752,-114759,-106298,40177,318940,165678,-115411,226188,-120249,-115465,65016,232802,39941
1016753,-114778,-106337,40097,318857,165655,-115435,226104,-120269,-115486,64967,232869,39863
1016754,-114824,-106381,40062,318768,165590,-115436,226037,-120269,-115492,64911,232936,39826
1016755,-114866,-106402,40115,318767,165451,-115435,225978,-120272,-115488,64939,232872,39882
1016756,-114917,-106387,40215,318794,165295,-115428,225972,-120262,-115482,64989,232575,39982
1016757,-114930,-106388,40261,318796,165057,-115447,225964,-120279,-115503,65017,232566,40027
1016758,-114963,-106398,40240,318802,165085,-115477,225902,-120324,-115528,64896,232707,40006
1016759,-115023,-106406,40208,318701,165189,-115458,225935,-120350,-115511,64812,232855,39975
1016760,-115033,-106443,40165,318638,165308,-115424,225964,-120350,-115479,64850,232900,39928
1016761,-114997,-106437,40171,318668,165445,-115445,226002,-120347,-115495,64874,232808,39935
1016762,-114921,-106431,40208,318672,165572,-115422,225999,-120328,-115477,64869,232734,39971
1016763,-114901,-106431,40208,318699,165691,-115459,225972,-120356,-115511,64896,232886,39975
1016764,-114867,-106425,40184,318810,165717,-115484,226009,-120353,-115538,64925,233007,39950
1016765,-114837,-106395,40226,318884,165676,-115470,226084,-120306,-115525,64973,232909,39992
1016766,-114788,-106359,40226,318898,165656,-115460,226154,-120272,-115515,65106,232884,39992
1016767,-114763,-106347,40225,318884,165725,-115477,226189,-120280,-115531,65143,232982,39992
1016768,-114741,-106325,40230,318910,165866,-115486,226250,-120294,-115539,65118,233067,39996
1016769,-114717,-106308,40200,318943,165914,-115485,226292,-120305,-115539,65079,233082,39968
1016770,-114747,-106301,40161,318969,165891,-115456,226267,-120307,-115507,65064,233096,39929
1016771,-114753,-106303,40169,318977,165860,-115458,226221,-120316,-115512,65026,232983,39933
1016772,-114790,-106332,40227,318959,165823,-115473,226159,-120338,-115529,64978,232871,39994
1016773,-114824,-106372,40253,318918,165798,-115484,226056,-120388,-115539,64950,232858,40013
1016774,-114853,-106384,40273,318888,165790,-115520,225852,-120422,-115574,64908,232886,40038
1016775,-114875,-106393,40264,318859,165752,-115523,225810,-120409,-115577,64889,232806,40030
1016776,-114914,-106392,40253,318806,165703,-115562,225865,-120412,-115616,64850,232675,40017
1016777,-114893,-106369,40248,318756,165628,-115600,225959,-120438,-115650,64787,232585,40014
1016778,-114919,-106379,40228,318688,165628,-115621,225973,-120466,-115674,64763,232553,39994
1016779,-114936,-106366,40247,318688,165650,-115642,226007,-120469,-115695,64741,232473,40016
1016780,-114902,-106340,40281,318729,165626,-115625,226080,-120451,-115677,64804,232214,40048
1016781,-114862,-106337,40283,318741,165472,-115597,226150,-120428,-115648,64854,232285,40049
1016782,-114876,-106359,40267,318734,165437,-115569,226122,-120435,-115621,64867,232611,40033
1016783,-114870,-106359,40258,318746,165430,-115544,226094,-120424,-115599,64893,232843,40022
1016784,-114876,-106343,40284,318790,165424,-115483,226129,-120391,-115540,64886,232879,40047
1016785,-114887,-106356,40249,318833,165501,-115464,226163,-120370,-115516,64878,233019,40013
1016786,-114874,-106341,40248,318835,165593,-115454,226204,-120344,-115508,64951,233149,40010
1016787,-114846,-106303,40271,318893,165601,-115470,226264,-120340,-115523,64964,233152,40038
1016788,-114781,-106253,40255,318876,165568,-115467,226296,-120312,-115518,64990,233214,40022
1016789,-114762,-106235,40226,318891,165569,-115471,226269,-120317,-115526,65028,233262,39992
1016790,-114751,-106235,40183,318867,165599,-115473,226185,-120329,-115528,65041,233310,39947
1016791,-114776,-106259,40152,318847,165534,-115474,226150,-120331,-115527,65070,233238,39917
1016792,-114822,-106270,40155,318782,165498,-115497,226149,-120354,-115549,65060,233132,39922
1016793,-114838,-106307,40198,318771,165540,-115547,226097,-120407,-115601,64989,232955,39964
1016794,-114861,-106357,40233,318811,165516,-115575,226087,-120453,-115631,64923,232847,40001
1016795,-114892,-106373,40223,318778,165451,-115590,226053,-120468,-115644,64897,232814,39987
1016796,-114930,-106376,40200,318719,165428,-115646,226030,-120466,-115700,64855,232781,39966
1016797,-114940,-106380,40177,318702,165424,-115619,225962,-120463,-115670,64855,232647,39944
1016798,-114935,-106379,40168,318755,165392,-115616,225902,-120432,-115667,64784,232480,39929
1016799,-114940,-106384,40150,318751,165312,-115586,225906,-120431,-115636,64783,232477,39916
1016800,-114926,-106379,40157,318679,165350,-115571,225866,-120439,-115622,64824,232595,39925
1016801,-114924,-106409,40131,318632,165522,-115549,225881,-120466,-115602,64812,232704,39896
1016802,-114893,-106376,40125,318689,165538,-115519,225959,-120478,-115575,64785,232676,39892
1016803,-114867,-106354,40109,318730,165534,-115535,226005,-120441,-115588,64811,232736,39875
1016804,-114850,-106365,40062,318717,165579,-115494,226036,-120407,-115546,64829,232855,39828
1016805,-114815,-106359,40053,318770,165624,-115473,226087,-120384,-115529,64820,232867,39817
1016806,-114824,-106350,40119,318825,165686,-115484,226143,-120381,-115535,64916,232885,39884
1016807,-114820,-106362,40150,318813,165652,-115445,226191,-120357,-115498,65013,232899,39915
1016808,-114789,-106343,40188,318858,165622,-115431,226231,-120344,-115485,65053,232926,39952
1016809,-114799,-106363,40191,318853,165692,-115436,226292,-120345,-115489,65036,232896,39954
1016810,-114808,-106377,40171,318855,165790,-115445,226254,-120349,-115500,64999,232833,39936
1016811,-114815,-106390,40137,318831,165694,-115440,226214,-120366,-115495,64999,232822,39902
1016812,-114831,-106421,40118,318822,165621,-115478,226225,-120376,-115531,64947,232695,39882
1016813,-114851,-106416,40141,318822,165595,-115514,226202,-120401,-115569,64885,232456,39905
1016814,-114877,-106444,40138,318734,165536,-115517,226170,-120402,-115571,64865,232334,39902
1016815,-114927,-106462,40122,318668,165414,-115546,226104,-120429,-115597,64835,232489,39888
1016816,-114948,-106474,40091,318571,165316,-115598,226033,-120450,-115650,64786,232628,39857
1016817,-114983,-106477,40099,318481,165281,-115624,225993,-120449,-115679,64766,232700,39862
1016818,-115016,-106485,40087,318414,165236,-115639,226012,-120452,-115690,64781,232615,39850
1016819,-115027,-106496,40104,318401,165244,-115611,225982,-120477,-115665,64789,232633,39867
1016820,-115009,-106503,40084,318406,165209,-115560,225944,-120456,-115612,64824,232686,39851
1016821,-115013,-106494,40052,318470,165281,-115514,225945,-120431,-115566,64830,232723,39817
1016822,-115011,-106492,39963,318583,165399,-115488,225956,-120438,-115539,64850,232760,39728
1016823,-114976,-106481,39930,318719,165591,-115503,225970,-120438,-115556,64864,232677,39694
1016824,-114942,-106454,39929,318743,165730,-115494,226005,-120436,-115546,64859,232692,39692
1016825,-114920,-106425,39983,318805,165814,-115530,226028,-120428,-115584,64856,232749,39747
1016826,-114890,-106416,40056,318866,165832,-115552,226099,-120406,-115605,64898,232773,39821
1016827,-114855,-106403,40088,318900,165830,-115569,226141,-120387,-115620,64954,232846,39856
1016828,-114810,-106375,40110,318937,165800,-115529,226157,-120387,-115583,64961,232966,39874
1016829,-114792,-106370,40116,319004,165824,-115454,226160,-120350,-115507,64962,232887,39880
1016830,-114791,-106386,40105,319041,165762,-115429,226130,-120338,-115484,64954,232867,39866
1016831,-114827,-106415,40122,318957,165692,-115494,226098,-120332,-115546,64946,233025,39887
1016832,-114879,-106448,40159,318841,165635,-115546,226051,-120349,-115599,64921,233110,39923
1016833,-114910,-106460,40156,318688,165563,-115578,226013,-120342,-115633,64921,233109,39919
1016834,-114918,-106483,40136,318614,165452,-115627,226025,-120320,-115683,64936,233057,39901
1016835,-114946,-106478,40090,318628,165436,-115635,226009,-120342,-115690,64895,232913,39854
1016836,-114963,-106480,40039,318636,165504,-115644,225987,-120377,-115699,64868,232766,39803
1016837,-115000,-106497,39992,318667,165466,-115576,225971,-120421,-115628,64864,232732,39758
1016838,-115041,-106531,39969,318584,165477,-115565,225931,-120436,-115616,64895,232816,39734
1016839,-115057,-106535,39947,318546,165535,-115549,225939,-120444,-115603,64905,232809,39712
1016840,-115051,-106524,39985,318595,165576,-115511,225953,-120441,-115566,64889,232763,39750
1016841,-114996,-106502,40006,318675,165419,-115464,225968,-120411,-115517,64871,232802,39771
1016842,-114943,-106461,40070,318739,165259,-115429,225963,-120375,-115482,64901,232803,39834
1016843,-114890,-106428,40072,318777,165201,-115396,225898,-120339,-115448,64976,232894,39837
1016844,-114858,-106422,40074,318794,165119,-115366,225960,-120323,-115419,65075,232978,39837
1016845,-114842,-106427,40087,318759,165168,-115355,226078,-120314,-115407,65104,233038,39851
1016846,-114842,-106439,40109,318600,165441,-115326,226151,-120280,-115379,65181,233136,39873
1016847,-114825,-106423,40102,318651,165586,-115323,226220,-120259,-115377,65182,233163,39865
1016848,-114821,-106399,40128,318719,165548,-115298,226290,-120233,-115352,65224,233148,39891
1016849,-114809,-106385,40159,318780,165579,-115281,226371,-120252,-115332,65235,233064,39922
1016850,-114817,-106410,40140,318784,165705,-115285,226380,-120274,-115339,65193,233024,39905
1016851,-114821,-106430,40116,318794,165872,-115318,226299,-120314,-115372,65097,233003,39880
1016852,-114817,-106426,40084,318796,165856,-115337,226250,-120317,-115389,64983,232908,39849
1016853,-114851,-106444,40078,318787,165810,-115343,226169,-120324,-115396,64946,232816,39844
1016854,-114866,-106458,40080,318828,165810,-115365,226049,-120347,-115419,64901,232690,39845
1016855,-114882,-106447,40067,318819,165730,-115354,225951,-120334,-115408,64879,232651,39827
1016856,-114917,-106453,40035,318819,165708,-115393,225870,-120365,-115447,64839,232729,39801
1016857,-114926,-106477,40009,318815,165609,-115419,225873,-120394,-115472,64861,232772,39771
1016858,-114963,-106481,39965,318782,165550,-115404,225889,-120384,-115457,64908,232720,39730
1016859,-114981,-106482,39905,318769,165566,-115435,225939,-120374,-115488,64917,232713,39672
1016860,-114963,-106483,39916,318748,165577,-115444,225961,-120363,-115496,64952,232728,39683
1016861,-114951,-106469,39944,318734,165588,-115435,226017,-120348,-115491,64961,232722,39712
1016862,-114895,-106456,39971,318692,165601,-115419,226082,-120317,-115469,64955,232761,39736
1016863,-114830,-106415,40007,318706,165681,-115412,226063,-120320,-115464,64933,232761,39767
1016864,-114792,-106394,40018,318708,165696,-115396,226067,-120282,-115450,64987,232834,39783
1016865,-114763,-106382,40035,318746,165736,-115403,226112,-120260,-115453,64972,232928,39800
1016866,-114747,-106363,40031,318803,165802,-115387,226189,-120223,-115439,65001,232962,39796
1016867,-114727,-106349,40042,318810,165804,-115363,226246,-120183,-115417,65018,232990,39804
1016868,-114725,-106336,40084,318828,165778,-115346,226318,-120186,-115401,65071,233038,39852
1016869,-114718,-106334,40106,318872,165774,-115330,226352,-120202,-115382,65090,233014,39871
1016870,-114733,-106381,40099,318853,165743,-115332,226358,-120217,-115385,65127,233014,39861
1016871,-114747,-106408,40083,318745,165720,-115328,226363,-120248,-115382,65118,233044,39847
1016872,-114789,-106410,40081,318743,165716,-115358,226333,-120312,-115410,65108,232965,39848
1016873,-114833,-106428,40055,318698,165678,-115418,226278,-120303,-115473,65137,232859,39820
1016874,-114870,-106432,40020,318684,165618,-115476,226218,-120298,-115527,65099,232844,39785
1016875,-114915,-106436,40001,318714,165528,-115476,226166,-120297,-115531,65016,232870,39766
1016876,-114957,-106450,39970,318693,165332,-115471,226127,-120317,-115523,65003,232951,39737
1016877,-114974,-106459,39966,318690,165206,-115458,226113,-120331,-115512,65016,232933,39732
1016878,-114972,-106487,39936,318674,165196,-115448,226072,-120367,-115500,65029,232899,39700
1016879,-114964,-106478,39935,318673,165305,-115437,226031,-120397,-115494,64988,232862,39697
1016880,-114926,-106471,39929,318695,165448,-115452,225994,-120386,-115505,64941,232805,39692
1016881,-114877,-106422,39957,318720,165447,-115462,225967,-120337,-115516,64913,232789,39724
1016882,-114852,-106418,39966,318719,165476,-115463,225957,-120319,-115519,64957,232934,39729
1016883,-114831,-106421,39992,318749,165539,-115460,226022,-120309,-115514,64946,232961,39756
1016884,-114809,-106408,40014,318800,165515,-115425,226106,-120286,-115481,64969,232951,39780
1016885,-114789,-106398,40044,318862,165577,-115379,226123,-120307,-115432,65040,232915,39807
1016886,-114781,-106384,40080,318940,165688,-115327,226168,-120300,-115381,65107,232863,39843
1016887,-114762,-106384,40091,318939,165843,-115306,226231,-120297,-115360,65133,232890,39856
1016888,-114721,-106353,40124,318951,165863,-115282,226244,-120283,-115336,65096,232951,39886
1016889,-114715,-106332,40128,318859,165821,-115256,226224,-120251,-115308,65113,233075,39891
1016890,-114737,-106343,40087,318743,165754,-115230,226201,-120223,-115283,65227,233092,39851
1016891,-114770,-106356,40053,318760,165628,-115229,226243,-120187,-115282,65271,232940,39820
1016892,-114814,-106375,40020,318730,165609,-115250,226225,-120201,-115304,65251,232813,39786
1016893,-114877,-106406,39994,318729,165652,-115342,226104,-120279,-115396,65147,232983,39756
1016894,-114938,-106432,40003,318742,165697,-115423,225968,-120346,-115478,65065,233034,39768
1016895,-114923,-106474,40006,318769,165715,-115492,225957,-120395,-115547,65025,232946,39772
1016896,-114935,-106511,39994,318723,165644,-115532,225976,-120427,-115586,64981,232939,39759
1016897,-114964,-106504,39994,318739,165634,-115544,225930,-120478,-115596,64951,232968,39758
1016898,-114994,-106520,39985,318715,165622,-115544,225855,-120493,-115598,64882,232981,39749
1016899,-114972,-106534,39973,318689,165566,-115525,225781,-120472,-115578,64906,232964,39737
1016900,-114942,-106510,39942,318682,165570,-115482,225796,-120418,-115533,64905,232877,39705
1016901,-114908,-106471,39955,318735,165573,-115444,225871,-120378,-115498,64874,232760,39720
1016902,-114883,-106445,39988,318819,165525,-115407,225911,-120345,-115463,64911,232664,39752
1016903,-114890,-106420,40047,318881,165488,-115392,225932,-120358,-115447,64954,232701,39812
1016904,-114902,-106408,40080,318933,165576,-115377,226008,-120351,-115431,65027,232659,39847
1016905,-114882,-106400,40158,318952,165535,-115377,226061,-120342,-115435,65099,232686,39926
1016906,-114853,-106369,40233,318973,165442,-115368,226131,-120307,-115422,65050,232921,39995
1016907,-114839,-106352,40256,318964,165439,-115366,226157,-120294,-115419,65028,233116,40021
1016908,-114837,-106350,40213,318864,165488,-115328,226191,-120268,-115381,65144,233241,39981
1016909,-114842,-106343,40169,318802,165684,-115309,226163,-120273,-115363,65172,233255,39932
1016910,-114846,-106344,40124,318797,165845,-115337,226127,-120298,-115393,65169,233168,39888
1016911,-114858,-106338,40103,318829,165898,-115399,226109,-120345,-115451,65092,233176,39867
1016912,-114887,-106365,40058,318900,165902,-115437,226038,-120395,-115490,65007,233130,39824
1016913,-114905,-106381,40076,318916,165942,-115453,226007,-120419,-115506,64902,232930,39840
1016914,-114922,-106391,40088,318964,165868,-115473,225977,-120445,-115528,64889,232728,39852
1016915,-114920,-106395,40052,318915,165730,-115479,225978,-120453,-115531,64904,232706,39819
1016916,-114971,-106439,39983,318799,165667,-115484,225954,-120462,-115537,64921,232763,39749
1016917,-114972,-106450,39964,318709,165762,-115478,225898,-120462,-115532,64871,232782,39728
1016918,-114974,-106432,40015,318679,165756,-115521,225870,-120471,-115573,64821,232706,39778
1016919,-114986,-106455,40077,318704,165755,-115562,225867,-120462,-115613,64826,232672,39842
1016920,-115001,-106454,40107,318748,165751,-115553,225831,-120444,-115603,64835,232707,39873
1016921,-114983,-106433,40090,318803,165690,-115483,225830,-120404,-115537,64880,232682,39856
1016922,-114941,-106395,40099,318911,165600,-115416,225822,-120362,-115470,64961,232620,39863
1016923,-114921,-106391,40115,318970,165575,-115375,225809,-120357,-115427,64975,232751,39883
1016924,-114907,-106367,40144,318905,165554,-115342,225901,-120355,-115398,65027,232890,39910
1016925,-114873,-106376,40134,318869,165480,-115325,226019,-120326,-115379,65113,233002,39901
1016926,-114841,-106372,40146,318883,165472,-115293,226069,-120298,-115344,65182,233171,39913
1016927,-114799,-106358,40150,318908,165545,-115281,226106,-120289,-115335,65197,233246,39915
1016928,-114801,-106353,40178,318900,165547,-115284,226159,-120298,-115337,65233,233368,39942
1016929,-114814,-106341,40218,318825,165557,-115246,226119,-120260,-115300,65275,233441,39981
1016930,-114784,-106350,40232,318855,165508,-115262,226126,-120269,-115311,65227,233437,40000
1016931,-114799,-106346,40225,318884,165537,-115280,226137,-120283,-115328,65191,233309,39989
1016932,-114818,-106372,40179,318862,165554,-115298,226067,-120294,-115349,65181,233191,39943
1016933,-114830,-106388,40133,318827,165575,-115304,225996,-120289,-115356,65119,233048,39898
1016934,-114849,-106411,40082,318771,165522,-115298,225986,-120286,-115354,65059,232964,39846
1016935,-114870,-106422,40014,318774,165511,-115298,226059,-120283,-115349,65000,232859,39781
1016936,-114930,-106465,39955,318723,165597,-115366,226056,-120301,-115420,65046,232746,39719
1016937,-114963,-106490,39969,318732,165581,-115377,226011,-120302,-115432,65101,232714,39733
1016938,-114980,-106484,39989,318790,165437,-115417,226002,-120326,-115471,65046,232741,39752
1016939,-114949,-106466,40013,318881,165401,-115433,226067,-120336,-115487,64905,232683,39775
1016940,-114915,-106461,39987,318852,165480,-115414,226100,-120296,-115465,64894,232604,39749
1016941,-114915,-106462,39952,318720,165650,-115407,226093,-120283,-115459,65000,232633,39716
1016942,-114913,-106439,39992,318798,165780,-115381,226074,-120230,-115439,65076,232479,39758
1016943,-114920,-106414,40051,318870,165850,-115406,226091,-120232,-115460,65041,232565,39815
1016944,-114902,-106399,40090,318876,165869,-115385,226118,-120220,-115440,65014,232754,39852
1016945,-114889,-106406,40112,318893,165861,-115355,226153,-120183,-115410,65110,232780,39875
1016946,-114860,-106384,40109,318915,165965,-115335,226142,-120164,-115389,65112,232967,39873
1016947,-114851,-106396,40104,318905,166012,-115288,226162,-120130,-115339,65142,233092,39866
1016948,-114818,-106377,40124,318926,165986,-115243,226252,-120109,-115294,65160,233102,39890
1016949,-114776,-106364,40115,318977,165974,-115222,226281,-120131,-115276,65150,233113,39880
1016950,-114788,-106369,40118,318985,165924,-115180,226286,-120140,-115233,65146,233131,39880
1016951,-114809,-106398,40131,318940,165898,-115171,226256,-120167,-115225,65150,233103,39897
1016952,-114839,-106409,40125,318858,165805,-115151,226204,-120173,-115205,65183,233078,39891
1016953,-114866,-106442,40097,318809,165726,-115172,226105,-120172,-115225,65195,233054,39862
1016954,-114897,-106475,40046,318819,165635,-115200,226044,-120160,-115256,65205,233050,39811
1016955,-114931,-106469,40037,318784,165553,-115239,225971,-120179,-115293,65169,233143,39804
1016956,-114961,-106503,40010,318765,165496,-115278,225915,-120214,-115332,65127,233184,39777
1016957,-114969,-106501,40010,318772,165537,-115296,225917,-120230,-115349,65091,233062,39777
1016958,-114979,-106509,40017,318740,165554,-115324,225909,-120242,-115381,65043,233022,39783
1016959,-115013,-106502,40012,318742,165503,-115328,225957,-120236,-115383,65011,233062,39778
1016960,-115028,-106503,39994,318722,165503,-115302,225998,-120215,-115355,65028,233092,39761
1016961,-115008,-106489,40008,318704,165541,-115270,226007,-120196,-115324,65040,233108,39772
1016962,-114926,-106460,40018,318716,165551,-115237,225900,-120173,-115289,65048,233137,39785
1016963,-114865,-106412,40055,318765,165590,-115214,225845,-120137,-115268,65070,233108,39821
1016964,-114857,-106402,40066,318811,165658,-115209,225957,-120144,-115266,65100,233040,39833
1016965,-114855,-106379,40065,318843,165741,-115213,226039,-120132,-115266,65123,233050,39831
1016966,-114808,-106363,40097,318886,165818,-115212,226112,-120142,-115264,65179,233048,39865
1016967,-114770,-106332,40115,318920,165821,-115202,226208,-120115,-115258,65194,233010,39880
1016968,-114728,-106308,40113,318909,165751,-115192,226333,-120075,-115242,65206,233037,39879
1016969,-114711,-106327,40115,318953,165681,-115275,226381,-120068,-115325,65197,233173,39882
1016970,-114671,-106327,40124,319004,165560,-115311,226396,-120067,-115363,65190,233120,39889
1016971,-114656,-106301,40138,318972,165401,-115281,226410,-120055,-115336,65189,232937,39903
1016972,-114676,-106322,40103,318836,165336,-115233,226390,-120062,-115284,65159,232886,39870
1016973,-114728,-106351,40045,318715,165336,-115224,226356,-120085,-115277,65095,232779,39811
1016974,-114762,-106372,39972,318609,165399,-115249,226312,-120126,-115305,65056,232778,39737
1016975,-114787,-106403,39907,318617,165437,-115311,226242,-120176,-115364,64986,232835,39668
1016976,-114829,-106427,39855,318676,165532,-115367,226162,-120213,-115421,64935,232728,39621
1016977,-114861,-106429,39846,318691,165569,-115399,226113,-120205,-115455,64927,232630,39611
1016978,-114891,-106439,39842,318716,165637,-115433,226049,-120252,-115486,64868,232604,39608
1016979,-114907,-106459,39846,318649,165716,-115475,225988,-120295,-115526,64900,232735,39610
1016980,-114905,-106468,39868,318627,165715,-115463,225980,-120324,-115517,64919,232815,39635
1016981,-114880,-106447,39907,318651,165600,-115418,225988,-120299,-115470,64921,232879,39674
1016982,-114854,-106422,39985,318700,165509,-115374,225985,-120274,-115430,64927,232884,39751
1016983,-114839,-106405,39973,318670,165526,-115315,226034,-120238,-115366,65005,232836,39739
1016984,-114808,-106422,39975,318619,165627,-115302,226090,-120202,-115355,65053,232835,39739
1016985,-114779,-106404,39979,318678,165658,-115289,226143,-120177,-115345,65032,232837,39743
1016986,-114724,-106374,40016,318800,165641,-115270,226203,-120153,-115324,64991,232860,39781
1016987,-114704,-106338,40035,318903,165569,-115263,226246,-120133,-115315,64994,232895,39801
1016988,-114697,-106326,40062,318954,165614,-115315,226272,-120148,-115366,65039,232969,39827
1016989,-114697,-106333,40058,318902,165668,-115327,226319,-120162,-115383,65108,232967,39824
1016990,-114696,-106324,40062,318779,165608,-115300,226348,-120162,-115354,65148,232941,39827
1016991,-114709,-106364,40029,318660,165578,-115293,226287,-120171,-115343,65128,232999,39792
1016992,-114741,-106372,40057,318675,165491,-115337,226122,-120221,-115393,65075,233107,39820
1016993,-114756,-106395,40035,318715,165401,-115391,226055,-120239,-115448,65045,233041,39799
1016994,-114799,-106416,40014,318733,165405,-115457,225973,-120267,-115512,64967,233011,39775
1016995,-114853,-106437,39965,318680,165438,-115498,225938,-120287,-115551,64964,233011,39731
1016996,-114879,-106470,39910,318650,165476,-115499,225898,-120301,-115553,64945,232872,39674
1016997,-114884,-106477,39904,318634,165489,-115527,225855,-120307,-115579,64888,232849,39669
1016998,-114903,-106477,39899,318605,165529,-115550,225770,-120334,-115604,64823,232889,39662
1016999,-114969,-106483,39917,318583,165531,-115517,225816,-120312,-115572,64821,232799,39685
1017000,-114989,-106472,39918,318589,165491,-115486,225877,-120307,-115540,64839,232800,39685
1017001,-114975,-106471,39928,318592,165516,-115460,225902,-120309,-115511,64828,232835,39691
1017002,-114904,-106449,39950,318653,165566,-115453,225972,-120322,-115506,64820,232824,39712
1017003,-114892,-106423,39947,318704,165591,-115435,226007,-120311,-115486,64877,232791,39713
1017004,-114833,-106406,39975,318744,165595,-115413,226015,-120283,-115465,64953,232774,39741
1017005,-114803,-106374,40057,318790,165687,-115424,225975,-120288,-115478,64975,232777,39821
1017006,-114750,-106347,40120,318794,165722,-115399,226015,-120255,-115454,64974,232883,39884
1017007,-114679,-106289,40183,318791,165663,-115371,226128,-120230,-115424,64920,232872,39950
1017008,-114645,-106256,40186,318808,165596,-115351,226151,-120205,-115405,64963,232921,39951
1017009,-114641,-106251,40154,318826,165625,-115366,226138,-120218,-115420,65022,232964,39917
1017010,-114656,-106261,40117,318862,165673,-115409,226165,-120227,-115460,64970,232964,39882
1017011,-114703,-106279,40079,318812,165719,-115447,226136,-120238,-115503,64973,232943,39842
1017012,-114730,-106273,40071,318796,165634,-115456,226063,-120238,-115509,65013,232802,39835
1017013,-114750,-106295,40060,318793,165538,-115460,226032,-120244,-115516,65020,232637,39824
1017014,-114783,-106340,40038,318831,165585,-115507,225957,-120320,-115561,64935,232678,39803
1017015,-114825,-106354,40047,318857,165654,-115550,225846,-120390,-115605,64818,232754,39811
1017016,-114866,-106369,40088,318868,165532,-115599,225797,-120391,-115655,64814,232729,39852
1017017,-114904,-106394,40053,318901,165560,-115634,225824,-120393,-115687,64781,232704,39815
1017018,-114941,-106419,40030,318918,165582,-115659,225802,-120413,-115708,64701,232678,39797
1017019,-114931,-106413,40061,318913,165446,-115590,225821,-120402,-115643,64730,232613,39830
1017020,-114913,-106410,40082,318797,165346,-115519,225877,-120379,-115570,64787,232687,39849
1017021,-114915,-106424,40079,318684,165497,-115504,225936,-120405,-115557,64810,232787,39843
1017022,-114922,-106416,40073,318636,165645,-115479,225957,-120400,-115532,64832,232841,39840
1017023,-114911,-106405,40095,318691,165649,-115429,225923,-120392,-115484,64902,232931,39861
1017024,-114858,-106357,40118,318772,165626,-115408,225912,-120346,-115461,64947,232941,39882
1017025,-114848,-106356,40109,318816,165618,-115385,225914,-120325,-115435,65032,233018,39875
1017026,-114851,-106340,40140,318849,165643,-115375,225948,-120297,-115430,65077,233151,39903
1017027,-114835,-106315,40160,318918,165645,-115356,225979,-120269,-115411,65099,233227,39924
1017028,-114790,-106285,40175,318963,165693,-115336,225997,-120256,-115388,65125,233251,39941
1017029,-114780,-106287,40207,318998,165754,-115349,226053,-120254,-115403,65109,233228,39970
1017030,-114778,-106285,40239,318992,165777,-115377,226101,-120285,-115430,65057,233169,40007
1017031,-114783,-106307,40230,318977,165734,-115421,226092,-120298,-115473,65048,233164,39995
1017032,-114763,-106298,40221,318985,165695,-115467,226041,-120362,-115517,64985,233091,39987
1017033,-114747,-106321,40206,318986,165618,-115467,225988,-120392,-115520,64931,232988,39968
1017034,-114758,-106322,40183,318928,165600,-115455,225942,-120397,-115509,64874,232859,39944
1017035,-114772,-106327,40180,318833,165594,-115456,225892,-120407,-115510,64829,232787,39943
1017036,-114809,-106328,40174,318756,165601,-115501,225881,-120443,-115554,64772,232780,39937
1017037,-114863,-106344,40134,318712,165609,-115538,225886,-120480,-115594,64756,232843,39898
1017038,-114903,-106359,40121,318735,165669,-115571,225834,-120495,-115622,64703,232857,39887
1017039,-114914,-106351,40132,318785,165772,-115581,225804,-120491,-115633,64721,232769,39899
1017040,-114907,-106346,40144,318818,165755,-115574,225872,-120463,-115624,64732,232728,39906
1017041,-114921,-106320,40186,318866,165788,-115564,225874,-120428,-115618,64720,232716,39950
1017042,-114873,-106280,40239,318942,165852,-115556,225895,-120413,-115609,64710,232585,40004
1017043,-114827,-106258,40278,318977,165907,-115526,225918,-120409,-115578,64767,232503,40043
1017044,-114796,-106253,40328,319024,165966,-115532,225918,-120385,-115584,64793,232560,40093
1017045,-114749,-106238,40350,319022,165976,-115498,225921,-120334,-115552,64842,232537,40118
1017046,-114703,-106223,40358,319014,165984,-115480,225996,-120281,-115535,64930,232547,40124
1017047,-114651,-106213,40371,319084,165982,-115507,226067,-120278,-115561,64944,232580,40135
1017048,-114612,-106199,40393,319113,165959,-115510,226070,-120270,-115565,65024,232669,40158
1017049,-114624,-106192,40355,319100,165933,-115494,226076,-120272,-115547,64987,232893,40120
1017050,-114617,-106203,40351,319126,165886,-115503,226095,-120317,-115555,64949,232986,40118
1017051,-114646,-106211,40326,319176,165810,-115469,226018,-120345,-115527,64949,232971,40091
1017052,-114683,-106226,40312,319099,165779,-115470,225937,-120373,-115525,64892,232970,40076
1017053,-114738,-106265,40273,318946,165709,-115490,225958,-120390,-115544,64820,233060,40039
1017054,-114762,-106283,40231,318822,165524,-115452,225963,-120369,-115501,64843,232978,39998
1017055,-114757,-106287,40232,318762,165409,-115442,225992,-120348,-115496,64834,232822,39995
1017056,-114810,-106338,40155,318681,165327,-115466,225976,-120363,-115517,64874,232889,39917
1017057,-114856,-106383,40088,318602,165361,-115481,225956,-120390,-115533,64868,233022,39851
1017058,-114876,-106390,40045,318607,165383,-115499,225937,-120393,-115553,64803,233001,39808
1017059,-114890,-106377,40031,318577,165415,-115481,225932,-120379,-115534,64820,232944,39797
1017060,-114883,-106379,40015,318622,165343,-115485,225917,-120335,-115538,64888,232962,39778
1017061,-114863,-106371,40033,318704,165355,-115579,225933,-120332,-115632,64916,232988,39797
1017062,-114859,-106371,40104,318739,165418,-115591,225916,-120322,-115643,64939,233030,39867
1017063,-114835,-106351,40149,318738,165452,-115564,225973,-120288,-115617,64976,232966,39910
1017064,-114797,-106337,40168,318772,165517,-115515,226015,-120272,-115570,64964,232939,39933
1017065,-114796,-106340,40192,318761,165600,-115478,226038,-120290,-115529,64984,233029,39955
1017066,-114762,-106327,40212,318768,165560,-115427,226067,-120276,-115482,65062,233169,39976
1017067,-114747,-106303,40216,318840,165520,-115392,226093,-120246,-115444,65136,233210,39983
1017068,-114688,-106289,40193,318873,165606,-115391,226091,-120217,-115444,65177,233185,39958
1017069,-114675,-106290,40199,318872,165804,-115408,226088,-120200,-115458,65139,233093,39966
1017070,-114723,-106307,40192,318877,165858,-115396,226076,-120207,-115448,65088,233061,39956
1017071,-114744,-106300,40212,318896,165748,-115427,226070,-120215,-115479,64995,233059,39977
1017072,-114756,-106318,40208,318906,165697,-115452,226036,-120262,-115503,64927,232982,39976
1017073,-114792,-106360,40156,318840,165733,-115482,225999,-120279,-115534,64902,232874,39921
1017074,-114826,-106393,40094,318764,165761,-115493,225973,-120304,-115546,64895,232796,39861
1017075,-114843,-106412,40069,318731,165726,-115504,225977,-120323,-115553,64892,232746,39836
1017076,-114868,-106422,40053,318720,165711,-115529,225896,-120341,-115584,64849,232667,39819
1017077,-114899,-106421,40030,318717,165705,-115529,225856,-120330,-115581,64840,232592,39796
1017078,-114898,-106436,39977,318676,165645,-115565,225886,-120326,-115619,64864,232486,39743
1017079,-114895,-106447,39958,318645,165575,-115603,225881,-120338,-115656,64834,232591,39722
1017080,-114911,-106442,39998,318670,165538,-115604,225882,-120351,-115657,64778,232743,39765
1017081,-114889,-106425,39997,318682,165401,-115576,225933,-120342,-115628,64831,232799,39759
1017082,-114823,-106394,39995,318726,165330,-115528,225977,-120314,-115581,64899,232670,39763
1017083,-114799,-106377,39981,318734,165450,-115496,226040,-120288,-115547,64919,232586,39749
1017084,-114812,-106383,39970,318654,165562,-115469,226156,-120295,-115521,64895,232691,39734
1017085,-114772,-106372,39945,318648,165468,-115430,226170,-120258,-115483,64923,232947,39712
1017086,-114716,-106359,39975,318754,165444,-115396,226185,-120210,-115447,64904,233045,39740
1017087,-114686,-106332,40024,318763,165490,-115400,226212,-120200,-115450,64923,233030,39792
1017088,-114654,-106331,40045,318698,165541,-115370,226251,-120163,-115425,64942,233058,39812
1017089,-114660,-106341,40041,318675,165694,-115358,226261,-120143,-115410,64935,233008,39805
1017090,-114667,-106337,40018,318694,165687,-115348,226245,-120142,-115404,64962,232944,39783
1017091,-114687,-106341,40004,318703,165595,-115370,226219,-120158,-115422,64966,232926,39767
1017092,-114707,-106356,39982,318722,165534,-115413,226168,-120223,-115466,64891,232930,39747
1017093,-114781,-106395,39920,318651,165523,-115449,226077,-120255,-115502,64885,232976,39685
1017094,-114847,-106427,39949,318555,165605,-115470,225993,-120283,-115522,64875,232938,39713
1017095,-114878,-106434,39981,318635,165660,-115487,225924,-120317,-115540,64828,232752,39747
1017096,-114910,-106443,40014,318737,165647,-115516,225846,-120345,-115569,64768,232650,39779
1017097,-114926,-106446,39988,318720,165612,-115534,225713,-120370,-115590,64725,232709,39753
1017098,-114957,-106456,39948,318690,165550,-115563,225625,-120385,-115617,64772,232782,39712
1017099,-114953,-106426,39924,318626,165517,-115576,225638,-120364,-115628,64807,232762,39689
1017100,-114932,-106393,39916,318615,165507,-115534,225729,-120313,-115585,64868,232536,39681
1017101,-114873,-106394,39926,318604,165470,-115526,225816,-120288,-115578,64890,232490,39692
1017102,-114856,-106399,39970,318627,165446,-115526,225866,-120307,-115582,64860,232670,39733
1017103,-114833,-106392,40037,318660,165451,-115526,225915,-120295,-115581,64839,232793,39802
1017104,-114822,-106378,40046,318616,165515,-115550,226002,-120286,-115602,64896,232884,39812
1017105,-114783,-106362,40078,318660,165633,-115532,226071,-120245,-115588,64934,232716,39840
1017106,-114757,-106332,40134,318762,165664,-115509,226098,-120226,-115563,64949,232709,39898
1017107,-114735,-106299,40183,318840,165605,-115489,226063,-120224,-115541,64973,232871,39947
1017108,-114719,-106286,40178,318910,165638,-115485,225995,-120216,-115539,64949,233076,39942
1017109,-114722,-106284,40171,318918,165692,-115461,225936,-120213,-115516,64989,233094,39936
1017110,-114713,-106282,40173,318860,165597,-115444,225983,-120222,-115493,65025,233074,39939
1017111,-114729,-106291,40152,318836,165549,-115441,226051,-120249,-115494,65023,232989,39916
1017112,-114750,-106302,40144,318816,165574,-115454,226041,-120293,-115509,64951,232840,39906
1017113,-114799,-106307,40120,318771,165644,-115512,226002,-120297,-115564,64883,232756,39884
1017114,-114824,-106335,40104,318768,165631,-115560,225943,-120332,-115611,64847,232717,39871
1017115,-114856,-106341,40119,318743,165577,-115586,225899,-120357,-115638,64799,232734,39883
1017116,-114873,-106335,40122,318627,165554,-115567,225849,-120356,-115619,64764,232657,39888
1017117,-114913,-106323,40099,318596,165503,-115525,225825,-120340,-115576,64780,232528,39865
1017118,-114914,-106304,40065,318551,165405,-115507,225806,-120353,-115561,64744,232550,39830
1017119,-114931,-106305,40042,318555,165370,-115478,225765,-120361,-115533,64660,232681,39804
1017120,-114949,-106305,40020,318601,165280,-115435,225836,-120325,-115486,64678,232692,39785
1017121,-114941,-106277,40037,318658,165288,-115460,225904,-120337,-115515,64740,232715,39799
1017122,-114911,-106279,40064,318692,165446,-115481,225915,-120352,-115535,64767,232726,39828
1017123,-114882,-106287,40093,318734,165484,-115498,225912,-120341,-115553,64862,232754,39858
1017124,-114849,-106275,40128,318799,165562,-115544,225933,-120327,-115594,64905,232829,39892
1017125,-114806,-106266,40138,318863,165634,-115547,225937,-120314,-115602,64926,232900,39902
1017126,-114755,-106238,40168,318910,165684,-115511,225964,-120277,-115562,64998,232880,39932
1017127,-114731,-106211,40216,318940,165703,-115438,225974,-120280,-115491,65026,232924,39981
1017128,-114690,-106192,40222,318989,165702,-115367,225960,-120262,-115419,65003,233049,39988
1017129,-114657,-106187,40208,319013,165640,-115309,225971,-120230,-115363,65045,233076,39971
1017130,-114668,-106192,40182,318975,165575,-115281,226008,-120233,-115332,65099,233096,39948
1017131,-114691,-106194,40200,318887,165539,-115296,226019,-120253,-115349,65073,233138,39967
1017132,-114743,-106213,40163,318886,165601,-115322,225919,-120257,-115376,65032,233055,39928
1017133,-114761,-106240,40096,318905,165658,-115343,225847,-120288,-115396,65001,232886,39861
1017134,-114751,-106235,40087,318893,165581,-115361,225815,-120301,-115413,64923,232850,39851
1017135,-114797,-106252,40087,318830,165583,-115396,225823,-120329,-115448,64845,232934,39851
1017136,-114825,-106286,40062,318703,165603,-115438,225779,-120357,-115491,64857,232964,39826
1017137,-114840,-106303,40069,318641,165606,-115478,225794,-120370,-115530,64893,232901,39836
1017138,-114848,-106329,40075,318605,165553,-115477,225870,-120350,-115529,64949,232744,39842
1017139,-114869,-106341,40080,318617,165517,-115488,225914,-120350,-115540,64945,232769,39843
1017140,-114876,-106338,40110,318650,165563,-115486,225908,-120359,-115538,64912,232909,39879
1017141,-114870,-106323,40146,318688,165615,-115476,225924,-120344,-115530,64914,232885,39911
1017142,-114823,-106297,40157,318731,165643,-115455,225978,-120325,-115508,64930,232797,39923
1017143,-114776,-106278,40174,318810,165622,-115406,226052,-120297,-115461,64933,232769,39941
1017144,-114700,-106222,40206,318880,165683,-115374,226059,-120279,-115427,64941,232700,39973
1017145,-114674,-106196,40217,318884,165690,-115346,226058,-120252,-115399,64959,232822,39982
1017146,-114610,-106154,40252,318902,165689,-115345,226103,-120214,-115397,64961,232930,40018
1017147,-114607,-106140,40285,318934,165677,-115307,226141,-120176,-115360,65024,232969,40047
1017148,-114595,-106123,40290,318957,165663,-115270,226189,-120114,-115324,65106,232932,40057
1017149,-114569,-106111,40298,318982,165627,-115254,226212,-120107,-115306,65106,232952,40062
1017150,-114597,-106138,40225,318892,165680,-115284,226241,-120118,-115334,65060,233146,39992
1017151,-114635,-106162,40184,318871,165720,-115296,226215,-120152,-115349,64992,233220,39945
1017152,-114679,-106178,40180,318854,165735,-115337,226153,-120183,-115392,64988,233153,39945
1017153,-114705,-106189,40173,318766,165668,-115358,226100,-120209,-115411,64998,233073,39937
1017154,-114758,-106228,40194,318732,165569,-115360,226072,-120215,-115415,65009,233014,39957
1017155,-114822,-106254,40181,318693,165590,-115398,226036,-120236,-115452,65013,233002,39945
1017156,-114808,-106255,40143,318667,165593,-115430,226013,-120275,-115485,64953,232951,39905
1017157,-114802,-106278,40110,318566,165537,-115432,226025,-120286,-115488,64954,232962,39871
1017158,-114820,-106280,40103,318578,165438,-115466,226005,-120301,-115520,64889,233016,39870
1017159,-114865,-106282,40102,318622,165327,-115448,225990,-120293,-115501,64947,232999,39868
1017160,-114879,-106275,40089,318740,165296,-115394,225985,-120255,-115445,64985,232935,39857
1017161,-114882,-106252,40088,318734,165438,-115335,225967,-120241,-115387,64964,232904,39856
1017162,-114812,-106245,40059,318699,165582,-115311,225994,-120207,-115368,64965,232871,39820
1017163,-114763,-106241,40066,318777,165595,-115321,226028,-120151,-115374,65011,232793,39831
1017164,-114733,-106241,40054,318905,165635,-115336,226059,-120143,-115391,65013,232850,39818
1017165,-114710,-106229,40094,318966,165660,-115352,226117,-120145,-115406,65062,232867,39862
1017166,-114644,-106216,40169,319014,165658,-115298,226159,-120134,-115352,65134,232842,39936
1017167,-114609,-106199,40249,319005,165576,-115222,226152,-120096,-115275,65207,232814,40014
1017168,-114578,-106183,40267,318955,165588,-115132,226160,-120094,-115184,65259,232862,40032
1017169,-114604,-106222,40266,318889,165753,-115127,226103,-120110,-115180,65251,233061,40031
1017170,-114651,-106262,40212,318848,165927,-115152,226059,-120142,-115205,65240,233177,39975
1017171,-114666,-106279,40180,318918,165959,-115233,226001,-120171,-115287,65241,233110,39944
1017172,-114704,-106292,40149,318978,165977,-115271,225894,-120213,-115326,65137,233128,39916
1017173,-114746,-106323,40138,318965,165932,-115298,225879,-120213,-115348,65040,233047,39902
1017174,-114811,-106347,40119,318887,165828,-115313,225903,-120254,-115364,65009,233089,39883
1017175,-114848,-106378,40096,318815,165750,-115322,225896,-120255,-115374,65041,233115,39861
1017176,-114883,-106401,40064,318757,165708,-115335,225858,-120278,-115388,65033,233058,39827
1017177,-114871,-106405,40035,318764,165663,-115312,225913,-120275,-115367,64961,232899,39799
1017178,-114890,-106422,40031,318744,165682,-115319,225969,-120294,-115373,64880,232809,39793
1017179,-114914,-106435,40020,318738,165762,-115304,225947,-120289,-115356,64812,232833,39784
1017180,-114890,-106435,40027,318717,165836,-115295,225963,-120278,-115348,64823,232763,39793
1017181,-114848,-106422,40044,318691,165744,-115279,226030,-120244,-115332,64902,232739,39809
1017182,-114827,-106410,40071,318743,165554,-115239,226073,-120199,-115290,64985,232794,39833
1017183,-114792,-106388,40072,318757,165434,-115218,226063,-120154,-115269,65059,232939,39839
1017184,-114803,-106382,40070,318692,165427,-115192,226048,-120146,-115244,65178,233080,39835
1017185,-114820,-106388,40050,318637,165463,-115188,226100,-120127,-115244,65302,233169,39814
1017186,-114816,-106361,40004,318679,165576,-115162,226162,-120108,-115214,65343,233261,39767
1017187,-114787,-106362,39944,318821,165556,-115143,226197,-120084,-115196,65332,233345,39708
1017188,-114739,-106328,39941,318947,165571,-115130,226202,-120075,-115183,65295,233435,39703
1017189,-114718,-106333,39947,318914,165644,-115139,226255,-120064,-115187,65306,233355,39714
1017190,-114685,-106333,39973,318828,165725,-115179,226297,-120093,-115232,65256,233303,39736
1017191,-114706,-106352,40020,318819,165756,-115203,226264,-120097,-115254,65189,233256,39787
1017192,-114734,-106369,40081,318778,165691,-115221,226227,-120106,-115274,65147,233113,39849
1017193,-114763,-106375,40115,318731,165700,-115239,226173,-120114,-115292,65031,232950,39879
1017194,-114818,-106399,40115,318585,165764,-115256,226125,-120148,-115308,64990,232914,39880
1017195,-114864,-106433,40062,318551,165779,-115246,226085,-120149,-115299,65022,232854,39825
1017196,-114890,-106440,40058,318591,165798,-115266,225980,-120181,-115318,64942,232715,39824
1017197,-114936,-106442,40042,318666,165759,-115264,225927,-120171,-115317,64935,232645,39806
1017198,-114979,-106464,40016,318700,165687,-115268,225861,-120185,-115321,64900,232733,39780
1017199,-114963,-106444,40034,318746,165585,-115306,225828,-120212,-115361,64865,232830,39802
