Timestamp (ms),Ch0 (uV),Ch1 (uV),Ch2 (uV),Ch3 (uV),Ch4 (uV),Ch5 (uV),Ch6 (uV),Ch7 (uV),Ch8 (uV),Ch9 (uV),Ch10 (uV),Ch11 (uV)
1013422,-115310,-108490,37456,315489,166698,-113413,225853,-118828,-113466,68869,232919,37223
1013423,-115300,-108473,37486,315516,166714,-113437,225892,-118786,-113489,68961,232967,37252
1013424,-115283,-108469,37497,315504,166655,-113417,225956,-118765,-113469,69024,233073,37263
1013425,-115259,-108449,37517,315510,166558,-113350,226035,-118726,-113402,69090,233168,37284
1013426,-115227,-108428,37540,315581,166460,-113269,226103,-118684,-113319,69190,233200,37308
1013427,-115185,-108393,37486,315616,166472,-113188,226184,-118643,-113242,69122,233228,37252
1013428,-115142,-108370,37492,315746,166586,-113127,226233,-118637,-113180,69018,233230,37258
1013429,-115129,-108348,37543,315859,166533,-113105,226249,-118659,-113160,68960,233234,37308
1013434,-115293,-108421,37515,315538,166265,-113148,226026,-118721,-113199,69076,233276,37282
1013437,-115320,-108485,37398,315512,166525,-113211,225964,-118775,-113261,69072,232930,37164
1013438,-115335,-108515,37351,315507,166551,-113244,225942,-118773,-113295,69037,232973,37114
1013439,-115312,-108513,37342,315566,166549,-113270,225912,-118789,-113323,69034,232956,37108
1013440,-115323,-108524,37369,315616,166552,-113267,225921,-118795,-113321,69068,232973,37135
1013441,-115295,-108512,37423,315619,166609,-113244,225984,-118770,-113297,69100,232843,37189
1013442,-115250,-108473,37507,315658,166605,-113207,226027,-118715,-113257,69136,232668,37274
1013443,-115225,-108450,37583,315688,166557,-113186,226079,-118693,-113239,69162,232676,37350
1013444,-115223,-108444,37604,315685,166550,-113210,226094,-118661,-113263,69152,232924,37369
1013445,-115208,-108425,37623,315623,166697,-113213,226069,-118665,-113265,69184,233141,37391
1013446,-115166,-108394,37637,315576,166805,-113216,226092,-118638,-113269,69218,233287,37400
1013447,-115130,-108369,37652,315657,166763,-113187,226128,-118604,-113241,69229,233305,37419
1013448,-115087,-108338,37672,315763,166757,-113113,226176,-118553,-113166,69283,233103,37440
1013449,-115082,-108330,37683,315821,166764,-113063,226168,-118548,-113114,69286,233078,37447
1013450,-115098,-108335,37701,315755,166772,-113044,226138,-118570,-113096,69213,233280,37467
1013451,-115103,-108351,37683,315657,166769,-113040,226057,-118582,-113089,69178,233372,37448
1013452,-115137,-108373,37647,315636,166709,-113055,225955,-118597,-113105,69214,233331,37414
1013453,-115193,-108409,37614,315683,166598,-113074,225863,-118603,-113129,69273,233237,37379
1013454,-115227,-108416,37591,315688,166558,-113070,225849,-118612,-113126,69267,233111,37352
1013455,-115267,-108439,37556,315709,166609,-113107,225877,-118657,-113160,69218,233066,37318
1013456,-115313,-108451,37505,315706,166604,-113121,225838,-118710,-113173,69137,233073,37268
1013457,-115323,-108466,37463,315700,166583,-113151,225866,-118736,-113203,69031,233187,37231
1013458,-115330,-108472,37401,315660,166554,-113175,225884,-118735,-113227,69007,233191,37168
1013459,-115318,-108472,37389,315627,166571,-113223,225891,-118702,-113275,69028,233169,37153
1013460,-115303,-108460,37426,315650,166544,-113332,225908,-118676,-113384,69051,233191,37190
1013461,-115291,-108461,37502,315592,166493,-113348,225939,-118653,-113404,69128,233237,37267
1013462,-115271,-108430,37577,315565,166418,-113289,226006,-118612,-113345,69161,233262,37340
1013463,-115214,-108401,37623,315556,166269,-113144,226084,-118570,-113201,69188,233214,37390
1013464,-115183,-108371,37629,315564,166295,-113078,226166,-118566,-113133,69224,233160,37394
1013465,-115144,-108366,37632,315603,166350,-113011,226232,-118578,-113062,69230,233163,37395
1013466,-115123,-108333,37641,315666,166408,-112928,226330,-118535,-112982,69249,233056,37408
1013467,-115094,-108293,37698,315750,166385,-112914,226385,-118471,-112969,69249,232923,37461
1013468,-115045,-108262,37738,315799,166555,-112978,226336,-118442,-113033,69276,232898,37502
1013469,-115036,-108260,37737,315805,166695,-113031,226299,-118457,-113084,69232,233009,37503
1013470,-115020,-108236,37762,315839,166777,-113114,226280,-118522,-113165,69121,233098,37523
1013471,-115051,-108245,37716,315797,166696,-113099,226271,-118533,-113152,69126,233113,37480
1013472,-115095,-108279,37586,315710,166645,-113046,226237,-118517,-113098,69186,233030,37349
1013473,-115119,-108312,37514,315652,166655,-113013,226171,-118532,-113067,69179,232929,37279
1013474,-115159,-108343,37515,315603,166589,-113042,226140,-118576,-113096,69156,232933,37282
1013475,-115209,-108382,37536,315603,166572,-113105,226071,-118624,-113158,69097,232976,37300
1013476,-115215,-108416,37555,315612,166459,-113150,226007,-118656,-113204,69061,233033,37322
1013477,-115239,-108428,37598,315619,166351,-113165,225972,-118671,-113219,69087,233036,37363
1013478,-115274,-108455,37585,315586,166329,-113174,225955,-118662,-113228,69096,232987,37350
1013479,-115277,-108458,37540,315474,166364,-113170,225992,-118635,-113220,69115,233009,37307
1013480,-115246,-108452,37540,315454,166344,-113164,226002,-118635,-113216,69088,233145,37306
1013481,-115217,-108446,37561,315453,166364,-113142,226073,-118617,-113194,69056,233138,37327
1013482,-115211,-108423,37600,315493,166384,-113130,226116,-118595,-113185,69116,233088,37367
1013483,-115231,-108422,37617,315553,166391,-113117,226120,-118595,-113167,69199,233187,37383
1013484,-115197,-108419,37599,315648,166464,-113114,226142,-118590,-113167,69168,233224,37365
1013485,-115138,-108381,37562,315677,166494,-113059,226192,-118551,-113110,69132,233268,37328
1013486,-115098,-108354,37558,315723,166625,-113044,226249,-118527,-113101,69156,233286,37323
1013487,-115067,-108338,37564,315729,166654,-113065,226262,-118498,-113117,69220,233337,37330
1013488,-115036,-108325,37572,315794,166726,-113061,226267,-118486,-113116,69242,233399,37338
1013489,-115047,-108322,37627,315845,166881,-113081,226209,-118529,-113133,69220,233458,37390
1013490,-115062,-108348,37685,315891,166947,-113059,226171,-118529,-113111,69247,233309,37451
1013491,-115081,-108389,37742,315871,166949,-113084,226147,-118547,-113137,69229,233250,37508
1013492,-115102,-108397,37707,315761,166834,-113095,226146,-118559,-113148,69266,233203,37473
1013493,-115112,-108405,37696,315687,166711,-113085,226122,-118556,-113137,69281,233043,37462
1013494,-115158,-108421,37695,315684,166584,-113080,226100,-118561,-113132,69258,232962,37462
1013495,-115227,-108453,37668,315635,166546,-113103,226010,-118599,-113156,69257,233110,37432
1013496,-115273,-108503,37612,315533,166612,-113126,225959,-118615,-113179,69208,233183,37379
1013497,-115273,-108511,37607,315496,166682,-113173,225932,-118615,-113226,69187,233110,37373
1013498,-115280,-108498,37630,315583,166621,-113194,225913,-118616,-113245,69179,232945,37394
1013499,-115252,-108470,37637,315666,166631,-113198,225817,-118629,-113251,69121,232898,37404
1013500,-115253,-108469,37618,315691,166704,-113193,225807,-118624,-113246,69060,233002,37384
1013501,-115265,-108473,37628,315719,166787,-113226,225865,-118615,-113278,69057,233011,37391
1013502,-115242,-108460,37663,315753,166790,-113291,225954,-118571,-113345,69078,233024,37428
1013503,-115208,-108451,37686,315753,166738,-113292,226045,-118512,-113346,69075,233112,37449
1013504,-115172,-108432,37719,315759,166692,-113275,226116,-118479,-113326,69086,233213,37484
1013505,-115138,-108402,37726,315767,166690,-113221,226191,-118505,-113275,69167,233221,37490
1013506,-115097,-108373,37741,315763,166621,-113140,226309,-118489,-113192,69280,233222,37508
1013507,-115048,-108321,37783,315805,166543,-113024,226362,-118480,-113077,69317,233136,37549
1013508,-115010,-108277,37820,315847,166669,-112975,226370,-118471,-113029,69220,233087,37587
1013509,-114985,-108267,37822,315825,166787,-112965,226383,-118467,-113019,69169,233086,37587
1013510,-115007,-108257,37818,315845,166728,-112972,226398,-118463,-113024,69168,233073,37583
1013511,-115014,-108284,37809,315817,166670,-112972,226378,-118476,-113028,69186,233014,37576
1013512,-115003,-108321,37779,315728,166572,-112990,226359,-118472,-113044,69222,232892,37543
1013513,-115019,-108360,37728,315548,166547,-113018,226323,-118496,-113071,69215,232966,37496
1013514,-115056,-108405,37700,315514,166626,-113081,226196,-118565,-113137,69116,233132,37462
1013515,-115116,-108425,37716,315530,166579,-113110,226061,-118595,-113165,69094,233248,37483
1013516,-115142,-108460,37691,315523,166565,-113142,226026,-118592,-113198,69061,233185,37457
1013517,-115171,-108470,37665,315555,166592,-113196,226005,-118637,-113248,69025,233178,37433
1013518,-115199,-108470,37657,315581,166618,-113234,225970,-118669,-113288,69005,233158,37423
1013519,-115208,-108478,37631,315540,166623,-113260,225986,-118670,-113315,69056,233144,37397
1013520,-115207,-108479,37574,315502,166606,-113241,226048,-118646,-113292,69118,233157,37341
1013521,-115206,-108452,37561,315554,166570,-113220,226095,-118627,-113276,69184,233206,37325
1013522,-115204,-108433,37539,315582,166580,-113199,226101,-118616,-113250,69241,233311,37305
1013523,-115156,-108416,37534,315616,166572,-113157,226137,-118579,-113208,69269,233339,37303
1013524,-115107,-108380,37615,315693,166627,-113132,226135,-118559,-113185,69245,233292,37382
1013525,-115074,-108337,37683,315797,166717,-113123,226153,-118537,-113177,69216,233202,37449
1013526,-115011,-108315,37755,315862,166752,-113105,226246,-118525,-113160,69225,233181,37519
1013527,-114991,-108316,37793,315882,166732,-113090,226281,-118506,-113144,69242,233237,37561
1013528,-114961,-108320,37797,315914,166746,-113078,226340,-118480,-113132,69254,233272,37563
1013529,-114956,-108312,37776,315908,166749,-113073,226402,-118455,-113123,69267,233283,37540
1013530,-114945,-108302,37771,315907,166725,-113069,226414,-118453,-113122,69281,233228,37534
1013531,-114969,-108302,37788,315855,166695,-113076,226366,-118460,-113127,69236,233223,37556
1013532,-114985,-108296,37819,315861,166677,-113124,226284,-118517,-113173,69155,233197,37587
1013533,-115044,-108320,37781,315858,166643,-113164,226179,-118530,-113217,69185,233193,37550
1013534,-115081,-108358,37738,315847,166642,-113168,226113,-118548,-113222,69191,233116,37503
1013535,-115094,-108379,37718,315764,166674,-113155,226025,-118528,-113208,69140,233084,37485
1013536,-115123,-108394,37684,315693,166670,-113155,225943,-118526,-113210,69077,233055,37447
1013537,-115138,-108393,37682,315634,166602,-113192,225975,-118526,-113244,69087,233020,37449
1013538,-115152,-108367,37701,315631,166530,-113244,226017,-118536,-113294,69081,232934,37466
1013539,-115165,-108378,37723,315595,166498,-113234,226019,-118522,-113288,69082,232923,37485
1013540,-115149,-108374,37717,315576,166445,-113242,226047,-118536,-113297,69113,233085,37485
1013541,-115123,-108354,37714,315617,166412,-113262,226142,-118533,-113314,69118,233110,37481
1013542,-115078,-108337,37706,315667,166509,-113237,226163,-118525,-113288,69148,233013,37470
1013543,-115038,-108286,37665,315685,166626,-113202,226243,-118507,-113257,69158,232924,37426
1013544,-115052,-108259,37659,315769,166681,-113194,226305,-118513,-113248,69130,233001,37424
1013545,-115032,-108247,37664,315870,166714,-113170,226352,-118513,-113224,69097,233051,37432
1013546,-114973,-108223,37767,315880,166631,-113075,226427,-118480,-113130,69153,233064,37530
1013547,-114909,-108211,37856,315849,166528,-112971,226454,-118440,-113024,69258,232985,37623
1013548,-114869,-108186,37896,315845,166499,-112962,226459,-118445,-113016,69298,233129,37658
1013549,-114864,-108200,37842,315776,166626,-113007,226405,-118492,-113059,69219,233485,37604
1013550,-114893,-108228,37817,315722,166733,-113065,226361,-118513,-113118,69175,233724,37583
1013551,-114921,-108231,37839,315743,166782,-113103,226253,-118509,-113157,69121,233706,37603
1013552,-114941,-108248,37857,315802,166816,-113198,226198,-118531,-113252,69094,233544,37624
1013553,-115011,-108263,37884,315855,166816,-113235,226127,-118550,-113291,69030,233513,37650
1013554,-115063,-108290,37904,315822,166791,-113257,226087,-118579,-113309,68990,233462,37668
1013555,-115075,-108293,37892,315758,166709,-113244,226063,-118605,-113298,68997,233393,37655
1013556,-115075,-108326,37861,315663,166597,-113182,226078,-118631,-113238,69026,233311,37630
1013557,-115078,-108314,37842,315665,166590,-113124,226114,-118654,-113177,69053,233050,37608
1013558,-115088,-108321,37842,315700,166545,-113109,226140,-118664,-113160,69065,232885,37608
1013559,-115087,-108308,37848,315722,166479,-113139,226148,-118687,-113194,69034,232951,37613
1013560,-115084,-108311,37866,315700,166480,-113164,226148,-118674,-113216,69068,233088,37633
1013561,-115081,-108292,37896,315691,166342,-113125,226184,-118623,-113178,69144,233134,37662
1013562,-115056,-108273,37904,315704,166234,-113123,226205,-118600,-113175,69208,233200,37670
1013563,-115051,-108289,37864,315727,166291,-113070,226231,-118572,-113121,69276,233258,37631
1013564,-115039,-108295,37795,315657,166553,-113057,226265,-118533,-113108,69327,233327,37564
1013565,-115028,-108279,37795,315754,166700,-113055,226286,-118514,-113108,69369,233241,37562
1013566,-114960,-108231,37845,315882,166769,-113034,226314,-118478,-113085,69409,233119,37611
1013567,-114937,-108208,37895,315958,166852,-113017,226339,-118452,-113071,69391,233057,37661
1013568,-114914,-108199,37934,316031,166964,-113019,226318,-118446,-113074,69321,233198,37699
1013569,-114927,-108196,37935,316048,166953,-112996,226296,-118448,-113050,69324,233318,37701
1013570,-114947,-108192,37953,316031,166963,-113012,226277,-118457,-113063,69314,233311,37719
1013571,-114973,-108222,37941,316022,167006,-113022,226249,-118463,-113075,69320,233314,37708
1013572,-115026,-108240,37927,316007,167051,-113075,226199,-118504,-113127,69283,233228,37696
1013573,-115060,-108239,37923,315995,167033,-113105,226172,-118529,-113161,69192,233170,37688
1013574,-115061,-108249,37913,315877,166934,-113119,226190,-118507,-113173,69193,233084,37678
1013575,-115073,-108249,37913,315781,166812,-113098,226218,-118508,-113149,69217,232967,37677
1013576,-115087,-108277,37858,315745,166748,-113111,226187,-118508,-113162,69218,232910,37624
1013577,-115084,-108281,37799,315672,166632,-113080,226220,-118492,-113133,69260,232943,37564
1013578,-115068,-108302,37780,315667,166601,-113085,226170,-118494,-113138,69193,232981,37543
1013579,-115073,-108312,37793,315731,166642,-113098,226125,-118516,-113149,69156,233045,37556
1013580,-115072,-108313,37795,315710,166699,-113098,226084,-118512,-113152,69151,233169,37562
1013581,-115060,-108324,37812,315734,166720,-113093,226107,-118494,-113144,69189,233192,37577
1013582,-115044,-108304,37825,315763,166748,-113063,226149,-118480,-113111,69223,233203,37590
1013583,-115012,-108280,37866,315812,166831,-113089,226131,-118488,-113144,69209,233335,37629
1013584,-114989,-108255,37903,315856,166892,-113111,226155,-118458,-113162,69207,233386,37668
1013585,-114946,-108210,37937,315927,166876,-113060,226241,-118389,-113112,69229,233311,37704
1013586,-114920,-108167,37968,316028,166877,-113036,226323,-118342,-113093,69243,233394,37733
1013587,-114858,-108135,37983,316066,166907,-113022,226338,-118323,-113074,69294,233480,37749
1013588,-114806,-108107,38011,316107,166899,-112952,226408,-118271,-113007,69370,233404,37775
1013589,-114789,-108086,38038,316116,166832,-112842,226504,-118251,-112896,69449,233265,37805
1013590,-114788,-108075,38086,316083,166833,-112776,226534,-118276,-112828,69423,233227,37852
1013591,-114821,-108099,38089,316040,166887,-112786,226474,-118290,-112838,69373,233396,37852
1013592,-114886,-108142,38110,316048,166913,-112876,226370,-118322,-112928,69330,233522,37877
1013593,-114926,-108169,38062,316011,166878,-112919,226389,-118330,-112972,69362,233497,37825
1013594,-114967,-108203,38004,315926,166808,-112932,226383,-118324,-112982,69366,233510,37766
1013595,-114979,-108237,37955,315769,166848,-112925,226323,-118348,-112977,69346,233598,37720
1013596,-115000,-108244,37966,315755,166855,-112945,226218,-118375,-112997,69319,233563,37730
1013597,-115013,-108243,37975,315721,166796,-112904,226146,-118395,-112957,69378,233536,37744
1013598,-115042,-108262,37941,315656,166723,-112900,226182,-118405,-112954,69400,233482,37705
1013599,-115060,-108293,37944,315693,166757,-112894,226205,-118418,-112949,69370,233449,37710
1013600,-115063,-108295,37917,315748,166787,-112910,226224,-118393,-112964,69386,233442,37683
1013601,-115042,-108289,37883,315842,166769,-112923,226278,-118401,-112974,69369,233430,37646
1013602,-115005,-108261,37861,315961,166713,-112903,226342,-118381,-112957,69348,233399,37626
1013603,-114984,-108231,37880,315973,166689,-112863,226383,-118359,-112914,69352,233411,37648
1013604,-114957,-108218,37899,315911,166673,-112826,226424,-118327,-112878,69386,233466,37662
1013605,-114921,-108201,37885,315809,166667,-112785,226474,-118275,-112839,69450,233539,37651
1013606,-114910,-108178,37903,315797,166770,-112756,226504,-118226,-112811,69527,233526,37667
1013607,-114889,-108169,37945,315837,166879,-112784,226506,-118239,-112837,69558,233528,37711
1013608,-114886,-108164,37994,315952,166931,-112782,226504,-118237,-112836,69532,233528,37761
1013609,-114867,-108150,38034,316038,166845,-112772,226517,-118231,-112824,69509,233498,37801
1013610,-114869,-108159,38035,316073,166833,-112795,226467,-118258,-112848,69490,233483,37801
1013611,-114887,-108190,37989,315983,166854,-112803,226434,-118259,-112855,69518,233424,37757
1013612,-114904,-108199,37926,315895,166882,-112828,226382,-118280,-112879,69488,233345,37693
1013613,-114949,-108226,37893,315917,166871,-112864,226308,-118312,-112919,69459,233210,37653
1013614,-114987,-108237,37852,315879,166813,-112896,226309,-118315,-112951,69466,233097,37618
1013615,-115003,-108267,37811,315872,166792,-112951,226287,-118348,-113004,69397,233098,37574
1013616,-115014,-108293,37796,315877,166789,-113005,226246,-118379,-113054,69275,233073,37561
1013617,-115053,-108333,37779,315783,166790,-113023,226218,-118384,-113075,69239,233172,37544
1013618,-115067,-108361,37744,315659,166801,-113002,226202,-118389,-113053,69246,233144,37509
1013619,-115067,-108348,37736,315583,166783,-112990,226243,-118383,-113042,69260,233073,37504
1013620,-115048,-108326,37751,315638,166721,-112987,226266,-118375,-113038,69269,233020,37513
1013621,-115002,-108319,37768,315632,166688,-112960,226272,-118362,-113010,69306,232973,37533
1013622,-115000,-108319,37730,315679,166681,-112904,226277,-118348,-112958,69335,233096,37490
1013623,-114997,-108318,37757,315771,166676,-112932,226299,-118352,-112985,69245,233293,37524
1013624,-115008,-108303,37800,315855,166648,-112918,226343,-118359,-112971,69201,233394,37561
1013625,-114948,-108290,37871,315924,166552,-112877,226404,-118326,-112934,69274,233270,37634
1013626,-114921,-108272,37894,315905,166670,-112825,226426,-118292,-112881,69342,233206,37656
1013627,-114919,-108275,37888,315898,166894,-112821,226460,-118274,-112871,69290,233192,37654
1013628,-114904,-108243,37898,315883,167009,-112786,226483,-118263,-112839,69258,233231,37662
1013629,-114906,-108231,37888,315923,167013,-112841,226436,-118286,-112895,69291,233364,37654
1013630,-114890,-108222,37864,316008,166948,-112900,226402,-118332,-112952,69304,233437,37629
1013631,-114907,-108236,37800,315977,166832,-112899,226379,-118352,-112953,69313,233475,37562
1013632,-114930,-108276,37724,315869,166727,-112903,226374,-118357,-112955,69321,233492,37487
1013633,-114979,-108315,37685,315750,166658,-112935,226364,-118380,-112988,69323,233493,37450
1013634,-115028,-108376,37643,315663,166670,-112962,226349,-118414,-113014,69295,233457,37407
1013635,-115047,-108409,37642,315665,166637,-112959,226320,-118438,-113013,69237,233408,37406
1013636,-115083,-108407,37659,315693,166596,-113002,226247,-118464,-113056,69205,233296,37425
1013637,-115103,-108408,37662,315633,166521,-113000,226200,-118461,-113053,69252,233234,37425
1013638,-115116,-108423,37666,315561,166532,-113020,226157,-118451,-113071,69230,233214,37429
1013639,-115112,-108422,37664,315557,166592,-113030,226175,-118448,-113081,69152,233151,37430
1013640,-115103,-108426,37682,315607,166649,-113009,226182,-118421,-113064,69178,233009,37443
1013641,-115135,-108410,37723,315682,166709,-113054,226176,-118426,-113108,69150,233042,37488
1013642,-115139,-108400,37688,315691,166788,-113093,226213,-118420,-113147,69127,233168,37456
1013643,-115093,-108376,37645,315661,166751,-113080,226277,-118391,-113132,69214,233224,37412
1013644,-115032,-108351,37639,315642,166700,-113045,226339,-118373,-113099,69257,233242,37406
1013645,-114990,-108319,37669,315568,166696,-112971,226358,-118359,-113023,69292,233243,37435
1013646,-114935,-108298,37730,315548,166815,-112929,226418,-118333,-112978,69291,233156,37496
1013647,-114890,-108272,37775,315564,166917,-112912,226483,-118304,-112964,69240,233068,37540
1013648,-114858,-108247,37832,315662,166836,-112904,226501,-118310,-112960,69216,233175,37596
1013649,-114861,-108240,37860,315772,166693,-112954,226460,-118342,-113007,69212,233382,37625
1013650,-114887,-108255,37804,315729,166662,-112971,226401,-118350,-113024,69228,233543,37570
1013651,-114924,-108274,37755,315701,166639,-112995,226334,-118371,-113050,69274,233527,37522
1013652,-114982,-108306,37675,315662,166645,-112988,226279,-118379,-113040,69236,233492,37443
1013653,-115033,-108341,37623,315589,166674,-113023,226234,-118410,-113073,69234,233395,37387
1013654,-115053,-108368,37608,315530,166595,-113062,226221,-118431,-113115,69267,233312,37370
1013655,-115077,-108373,37639,315527,166435,-113101,226165,-118451,-113151,69281,233283,37404
1013656,-115106,-108376,37642,315617,166363,-113157,226098,-118470,-113209,69231,233166,37409
1013657,-115161,-108395,37591,315613,166489,-113160,226151,-118510,-113214,69208,233051,37356
1013658,-115193,-108412,37572,315600,166562,-113161,226153,-118536,-113216,69157,232946,37336
1013659,-115153,-108417,37584,315589,166635,-113156,226095,-118558,-113208,69128,232889,37354
1013660,-115118,-108389,37674,315602,166714,-113147,226067,-118557,-113199,69088,232746,37438
1013661,-115122,-108387,37720,315622,166717,-113126,226092,-118547,-113182,69077,232712,37484
1013662,-115115,-108374,37726,315606,166746,-113109,226095,-118521,-113160,69069,232798,37492
1013663,-115069,-108339,37742,315676,166788,-113086,226023,-118500,-113140,69096,232777,37508
1013664,-115064,-108326,37744,315749,166864,-113104,226056,-118491,-113158,69109,232809,37511
1013665,-115021,-108308,37758,315759,166856,-113174,226169,-118477,-113229,69137,232841,37524
1013666,-114980,-108289,37772,315802,166898,-113204,226209,-118452,-113258,69171,233017,37538
1013667,-114946,-108279,37782,315804,166862,-113188,226331,-118449,-113237,69147,233106,37549
1013668,-114935,-108268,37790,315746,166807,-113120,226436,-118455,-113172,69148,233211,37556
1013669,-114952,-108260,37781,315603,166741,-113068,226470,-118466,-113118,69214,233364,37549
1013670,-114955,-108245,37776,315560,166535,-113033,226421,-118488,-113086,69243,233489,37541
1013671,-114942,-108239,37754,315654,166389,-113025,226314,-118500,-113079,69238,233431,37520
1013672,-114983,-108258,37700,315666,166363,-113014,226228,-118507,-113068,69276,233263,37465
1013673,-115078,-108314,37612,315678,166421,-113031,226174,-118536,-113081,69242,233252,37375
1013674,-115125,-108379,37561,315634,166439,-113071,226167,-118551,-113121,69146,233329,37322
1013675,-115146,-108394,37602,315644,166444,-113119,226125,-118601,-113175,69073,233276,37367
1013676,-115165,-108402,37682,315653,166449,-113120,226082,-118607,-113173,69039,232989,37447
1013677,-115200,-108436,37686,315607,166468,-113109,226127,-118588,-113160,68957,232937,37454
1013678,-115236,-108467,37649,315545,166463,-113121,226115,-118616,-113174,68936,233056,37412
1013679,-115257,-108467,37619,315548,166469,-113152,226038,-118640,-113206,68886,233247,37384
1013680,-115240,-108461,37620,315549,166549,-113140,226026,-118638,-113198,68851,233278,37384
1013681,-115206,-108445,37645,315575,166702,-113157,225967,-118629,-113210,68915,233113,37411
1013682,-115157,-108407,37675,315657,166808,-113138,225932,-118610,-113189,69028,232899,37441
1013683,-115133,-108386,37704,315738,166870,-113133,225991,-118577,-113186,69067,232777,37468
1013684,-115144,-108371,37707,315820,166931,-113171,226044,-118527,-113225,69047,232839,37472
1013685,-115118,-108333,37733,315918,166955,-113225,226043,-118502,-113280,69065,232862,37499
1013686,-115067,-108309,37728,315984,167001,-113164,226115,-118444,-113219,69170,232740,37491
1013687,-115044,-108308,37702,315943,167058,-113084,226195,-118427,-113136,69234,232747,37469
1013688,-115044,-108299,37699,315955,167062,-113038,226232,-118451,-113091,69209,232976,37464
1013689,-115066,-108294,37757,315949,166843,-112994,226232,-118451,-113047,69274,233161,37523
1013690,-115105,-108320,37809,315875,166713,-112967,226255,-118446,-113019,69332,233231,37575
1013691,-115106,-108338,37847,315786,166786,-112985,226269,-118451,-113040,69351,232991,37609
1013692,-115125,-108376,37853,315756,166822,-112999,226240,-118490,-113053,69301,232924,37620
1013693,-115177,-108424,37823,315693,166749,-113022,226159,-118529,-113075,69223,233082,37587
1013694,-115218,-108454,37741,315675,166606,-113038,226100,-118567,-113094,69189,233264,37506
1013695,-115237,-108466,37694,315684,166549,-113056,225989,-118584,-113107,69149,233373,37459
1013696,-115283,-108476,37656,315595,166488,-113053,225927,-118595,-113108,69142,233408,37421
1013697,-115292,-108473,37672,315527,166513,-113061,225894,-118575,-113116,69130,233384,37438
1013698,-115313,-108493,37646,315457,166597,-113087,225884,-118576,-113139,69078,233319,37413
1013699,-115311,-108498,37615,315481,166651,-113106,225894,-118570,-113160,69059,233344,37382
1013700,-115307,-108505,37606,315562,166671,-113108,225898,-118575,-113161,69094,233329,37373
1013701,-115292,-108486,37620,315642,166684,-113103,225930,-118584,-113154,69134,233292,37386
1013702,-115253,-108458,37639,315695,166590,-113090,226004,-118569,-113143,69180,233297,37404
1013703,-115206,-108456,37680,315749,166587,-113065,226053,-118556,-113118,69186,233312,37444
1013704,-115189,-108445,37684,315761,166769,-113042,226097,-118556,-113093,69185,233312,37452
1013705,-115171,-108432,37682,315765,166826,-113016,226188,-118540,-113068,69205,233320,37449
1013706,-115111,-108385,37736,315790,166829,-113000,226272,-118495,-113052,69251,233274,37500
1013707,-115070,-108341,37779,315786,166822,-112970,226295,-118499,-113021,69297,233285,37546
1013708,-115045,-108333,37800,315728,166842,-112930,226348,-118459,-112984,69321,233341,37567
1013709,-115018,-108320,37844,315667,166784,-112909,226402,-118430,-112961,69347,233352,37609
1013710,-115013,-108301,37858,315715,166769,-112911,226388,-118418,-112966,69351,233266,37624
1013711,-115038,-108326,37844,315752,166752,-112913,226337,-118405,-112965,69316,233154,37611
1013712,-115052,-108327,37819,315772,166787,-112932,226229,-118416,-112984,69202,233098,37587
1013713,-115076,-108342,37744,315716,166787,-112966,226256,-118440,-113018,69134,232987,37510
1013714,-115087,-108359,37691,315731,166603,-112993,226252,-118483,-113044,69139,232959,37459
1013715,-115119,-108384,37667,315780,166357,-113020,226212,-118499,-113074,69184,233046,37436
1013716,-115174,-108410,37668,315826,166258,-113063,226078,-118521,-113116,69148,233163,37436
1013717,-115242,-108450,37693,315728,166329,-113067,226026,-118530,-113117,69190,233187,37460
1013718,-115244,-108446,37697,315632,166365,-113095,226058,-118541,-113148,69198,233149,37464
1013719,-115231,-108456,37713,315635,166393,-113088,226056,-118556,-113141,69161,233136,37478
1013720,-115222,-108475,37692,315629,166519,-113055,226029,-118557,-113110,69172,233170,37457
1013721,-115200,-108472,37705,315667,166617,-113033,226055,-118554,-113084,69213,233020,37470
1013722,-115191,-108436,37725,315718,166657,-113019,226096,-118533,-113073,69167,233032,37489
1013723,-115159,-108419,37772,315753,166585,-112996,226141,-118502,-113049,69155,233084,37538
1013724,-115125,-108414,37772,315731,166627,-112964,226158,-118474,-113017,69198,233178,37540
1013725,-115107,-108401,37779,315660,166658,-112950,226184,-118442,-113003,69247,233280,37545
1013726,-115041,-108355,37803,315669,166661,-112926,226252,-118415,-112977,69279,233336,37570
1013727,-115020,-108349,37799,315662,166767,-112915,226352,-118408,-112969,69269,233309,37566
1013728,-114995,-108351,37806,315707,166899,-112918,226379,-118395,-112972,69264,233375,37569
1013729,-115010,-108365,37747,315733,167017,-112930,226352,-118426,-112983,69251,233502,37513
1013730,-115046,-108387,37699,315753,167006,-112947,226334,-118445,-113000,69282,233587,37467
1013731,-115047,-108396,37669,315752,166911,-112962,226327,-118473,-113013,69320,233523,37435
1013732,-115046,-108410,37652,315805,166806,-113016,226336,-118466,-113067,69294,233322,37418
1013733,-115056,-108412,37674,315874,166851,-113115,226348,-118477,-113168,69212,232938,37442
1013734,-115070,-108424,37692,315852,166881,-113148,226345,-118482,-113204,69130,232678,37454
1013735,-115094,-108445,37667,315783,166824,-113177,226300,-118501,-113231,69161,232678,37431
1013736,-115125,-108454,37655,315771,166731,-113211,226202,-118547,-113263,69018,232885,37419
1013737,-115149,-108464,37646,315674,166791,-113194,226102,-118558,-113248,69023,232937,37414
1013738,-115184,-108463,37648,315537,166736,-113164,226047,-118588,-113216,69082,232934,37414
1013739,-115199,-108469,37645,315518,166710,-113154,226051,-118601,-113205,68973,233041,37410
1013740,-115174,-108463,37618,315626,166675,-113144,226074,-118587,-113198,68945,233013,37384
1013741,-115154,-108454,37593,315737,166645,-113106,226104,-118563,-113161,69011,232912,37357
1013742,-115130,-108442,37602,315750,166647,-113094,226140,-118560,-113148,69044,232938,37368
1013743,-115140,-108416,37626,315731,166659,-113121,226187,-118553,-113176,69057,233106,37393
1013744,-115125,-108400,37645,315727,166735,-113183,226210,-118580,-113236,69072,233269,37412
1013745,-115090,-108394,37667,315674,166825,-113186,226209,-118575,-113240,69147,233367,37433
1013746,-115036,-108384,37703,315697,166916,-113096,226259,-118533,-113151,69175,233257,37470
1013747,-115004,-108363,37717,315762,166953,-113025,226318,-118520,-113080,69121,233200,37483
1013748,-114998,-108339,37689,315862,166839,-112968,226365,-118507,-113022,69089,233354,37455
1013749,-115013,-108347,37617,315879,166819,-112971,226357,-118508,-113026,69063,233587,37384
1013750,-115003,-108379,37561,315805,166806,-112973,226343,-118514,-113027,69132,233627,37325
1013751,-115018,-108398,37571,315709,166818,-113018,226339,-118536,-113073,69207,233483,37337
1013752,-115039,-108413,37605,315665,166707,-113119,226298,-118552,-113171,69269,233384,37371
1013753,-115088,-108444,37635,315633,166571,-113161,226216,-118575,-113217,69295,233323,37401
1013754,-115113,-108450,37645,315629,166403,-113166,226179,-118573,-113218,69271,233280,37411
1013755,-115138,-108459,37615,315564,166334,-113176,226124,-118578,-113228,69212,233294,37380
1013756,-115163,-108481,37548,315452,166407,-113180,225962,-118579,-113233,69200,233309,37313
1013757,-115160,-108501,37500,315432,166442,-113155,225868,-118585,-113210,69201,233232,37263
1013758,-115215,-108507,37453,315429,166450,-113176,225917,-118590,-113228,69167,233126,37217
1013759,-115234,-108507,37470,315467,166457,-113145,225949,-118616,-113195,69121,233048,37235
1013760,-115202,-108519,37450,315460,166505,-113110,225964,-118625,-113164,69125,232995,37215
1013761,-115184,-108513,37494,315496,166539,-113112,226023,-118621,-113167,69144,232889,37261
1013762,-115155,-108473,37546,315538,166611,-113117,226094,-118629,-113171,69122,232846,37308
1013763,-115121,-108467,37602,315563,166616,-113123,226141,-118621,-113178,69065,232945,37367
1013764,-115094,-108457,37643,315561,166643,-113123,226200,-118609,-113179,69013,233041,37406
1013765,-115062,-108435,37646,315594,166678,-113191,226283,-118597,-113246,68999,233125,37410
1013766,-115011,-108397,37627,315608,166636,-113242,226393,-118559,-113294,69067,233187,37394
1013767,-114949,-108340,37603,315671,166543,-113199,226447,-118514,-113254,69106,233080,37368
1013768,-114924,-108326,37584,315685,166475,-113137,226468,-118474,-113192,69164,233102,37352
1013769,-114912,-108336,37569,315660,166472,-113070,226451,-118460,-113124,69186,233202,37335
1013770,-114937,-108363,37578,315548,166540,-113038,226425,-118500,-113092,69177,233195,37345
1013771,-114958,-108371,37618,315498,166590,-113082,226349,-118560,-113134,69152,233200,37385
1013772,-115019,-108380,37616,315473,166620,-113152,226269,-118594,-113204,69085,233213,37382
1013773,-115070,-108391,37598,315521,166565,-113210,226189,-118615,-113263,69013,233169,37365
1013774,-115091,-108412,37566,315534,166525,-113207,226137,-118622,-113262,68933,233040,37329
1013775,-115126,-108435,37534,315492,166543,-113188,226060,-118654,-113242,68939,232989,37298
1013776,-115203,-108479,37487,315432,166588,-113218,226001,-118694,-113271,68972,232976,37252
1013777,-115261,-108510,37450,315449,166608,-113219,225964,-118742,-113272,69024,232950,37215
1013778,-115305,-108516,37429,315495,166594,-113219,225929,-118792,-113269,68998,232939,37196
1013779,-115285,-108505,37457,315536,166467,-113233,225976,-118780,-113288,68987,232889,37221
1013780,-115266,-108515,37474,315519,166350,-113227,226022,-118755,-113280,69053,232948,37238
1013781,-115248,-108488,37499,315551,166386,-113234,225991,-118758,-113288,69056,233019,37264
1013782,-115225,-108471,37528,315601,166452,-113234,226026,-118755,-113288,69046,233055,37290
1013783,-115200,-108467,37531,315568,166541,-113214,226072,-118730,-113267,69045,233095,37294
1013784,-115157,-108438,37539,315585,166632,-113196,226129,-118706,-113249,69042,233063,37306
1013785,-115123,-108405,37558,315611,166693,-113157,226181,-118685,-113210,69054,233016,37325
1013786,-115081,-108381,37587,315601,166661,-113121,226263,-118665,-113174,69105,233114,37356
1013787,-115051,-108376,37629,315577,166620,-113112,226296,-118659,-113168,69133,233240,37398
1013788,-115030,-108361,37674,315625,166643,-113103,226321,-118646,-113156,69141,233299,37438
1013789,-115023,-108338,37710,315696,166723,-113115,226298,-118666,-113169,69090,233277,37477
1013790,-115036,-108329,37755,315782,166754,-113146,226258,-118666,-113198,69063,233157,37520
1013791,-115086,-108353,37736,315766,166820,-113185,226209,-118684,-113238,69060,233145,37500
1013792,-115128,-108372,37721,315740,166821,-113244,226107,-118716,-113297,69020,233134,37485
1013793,-115172,-108382,37668,315734,166832,-113280,226053,-118735,-113331,68970,233060,37431
1013794,-115187,-108388,37623,315678,166775,-113291,226018,-118750,-113343,68951,232971,37389
1013795,-115192,-108388,37596,315650,166643,-113282,226041,-118754,-113333,69010,232763,37361
1013796,-115202,-108408,37619,315648,166542,-113251,226025,-118751,-113303,69030,232525,37384
1013797,-115236,-108426,37554,315606,166476,-113239,226033,-118755,-113295,69025,232539,37318
1013798,-115256,-108465,37545,315563,166409,-113244,225994,-118778,-113294,68973,232693,37313
1013799,-115271,-108480,37540,315595,166426,-113219,225958,-118799,-113274,68894,232767,37304
1013800,-115290,-108480,37571,315638,166433,-113238,225917,-118805,-113289,68935,232842,37338
1013801,-115269,-108453,37605,315617,166440,-113230,225928,-118787,-113283,68951,232879,37372
1013802,-115227,-108426,37617,315555,166330,-113185,225970,-118755,-113238,69060,232967,37386
1013803,-115183,-108402,37631,315563,166301,-113158,226018,-118728,-113212,69081,233040,37398
1013804,-115179,-108413,37629,315560,166430,-113138,226051,-118713,-113189,69092,233114,37394
1013805,-115168,-108411,37626,315507,166552,-113133,226096,-118697,-113185,69062,233283,37391
1013806,-115133,-108392,37648,315493,166609,-113157,226182,-118659,-113211,69117,233371,37413
1013807,-115131,-108397,37668,315509,166702,-113176,226182,-118617,-113228,69191,233455,37435
1013808,-115144,-108400,37686,315592,166866,-113167,226141,-118619,-113220,69183,233509,37451
1013809,-115162,-108412,37695,315682,166925,-113146,226143,-118613,-113199,69202,233442,37460
1013810,-115162,-108414,37693,315736,166901,-113139,226145,-118614,-113191,69220,233318,37460
1013811,-115161,-108410,37719,315781,166858,-113142,226085,-118637,-113197,69195,233203,37484
1013812,-115200,-108425,37726,315766,166798,-113142,226005,-118674,-113193,69149,233200,37490
1013813,-115243,-108454,37698,315711,166686,-113151,226007,-118715,-113206,69113,233195,37463
1013814,-115290,-108473,37661,315685,166606,-113170,226029,-118746,-113221,69081,233179,37426
1013815,-115311,-108512,37615,315628,166573,-113174,226023,-118763,-113226,69080,233166,37381
1013816,-115343,-108544,37647,315646,166415,-113172,226026,-118783,-113225,69015,233132,37414
1013817,-115337,-108546,37655,315675,166296,-113146,226041,-118799,-113197,68899,233150,37422
1013818,-115365,-108549,37581,315576,166385,-113148,226014,-118780,-113202,68845,233099,37349
1013819,-115334,-108563,37540,315418,166484,-113118,226053,-118740,-113171,68933,232904,37304
1013820,-115306,-108549,37570,315437,166535,-113136,226084,-118718,-113189,68978,232775,37338
1013821,-115280,-108531,37584,315485,166527,-113133,226091,-118682,-113186,68988,232777,37351
1013822,-115264,-108520,37594,315505,166499,-113125,226067,-118675,-113182,69032,232951,37359
1013823,-115238,-108504,37609,315617,166521,-113173,226076,-118678,-113227,69042,233045,37374
1013824,-115206,-108489,37614,315687,166586,-113149,226117,-118647,-113202,69062,233072,37381
1013825,-115164,-108476,37572,315735,166648,-113108,226149,-118634,-113159,69088,233064,37339
1013826,-115126,-108457,37608,315784,166709,-113055,226134,-118600,-113108,69138,233132,37372
1013827,-115092,-108414,37661,315853,166786,-113036,226117,-118601,-113091,69170,233025,37425
1013828,-115059,-108402,37674,315857,166842,-113000,226137,-118567,-113052,69183,233025,37440
1013829,-115064,-108413,37691,315793,166808,-113019,226219,-118578,-113070,69248,233129,37457
1013830,-115112,-108433,37677,315759,166736,-113037,226241,-118592,-113087,69274,233221,37443
1013831,-115119,-108439,37641,315720,166607,-113064,226207,-118615,-113115,69223,233387,37407
1013832,-115132,-108450,37611,315696,166438,-113040,226177,-118629,-113093,69158,233473,37375
1013833,-115157,-108467,37611,315654,166358,-113056,226147,-118646,-113111,69103,233368,37379
1013834,-115180,-108488,37646,315617,166423,-113102,226106,-118669,-113153,69049,233209,37412
1013835,-115202,-108515,37647,315582,166470,-113129,225993,-118691,-113185,69101,233102,37412
1013836,-115227,-108535,37576,315559,166460,-113147,225960,-118677,-113201,69170,232920,37341
1013837,-115249,-108543,37505,315501,166537,-113223,225987,-118706,-113278,69155,232952,37271
1013838,-115276,-108532,37478,315417,166558,-113241,226026,-118709,-113296,69037,232929,37243
1013839,-115255,-108535,37479,315433,166572,-113191,226006,-118721,-113241,69022,232817,37244
1013840,-115237,-108526,37522,315468,166596,-113121,225998,-118715,-113177,69072,232692,37288
1013841,-115244,-108518,37558,315507,166597,-113098,226042,-118715,-113151,69065,232784,37322
1013842,-115251,-108515,37588,315588,166612,-113114,226042,-118722,-113167,69010,233005,37353
1013843,-115238,-108504,37609,315616,166621,-113092,226061,-118691,-113141,69083,233074,37377
1013844,-115211,-108492,37605,315636,166626,-113075,226089,-118666,-113130,69123,233140,37370
1013845,-115187,-108470,37621,315666,166687,-113045,226131,-118651,-113099,69077,233242,37385
1013846,-115179,-108453,37633,315718,166817,-113061,226187,-118643,-113112,69073,233325,37395
1013847,-115135,-108429,37673,315794,166836,-113090,226261,-118640,-113145,69116,233353,37440
1013848,-115100,-108414,37703,315829,166850,-113068,226302,-118621,-113118,69169,233317,37468
1013849,-115062,-108404,37760,315858,166851,-113044,226335,-118592,-113097,69179,233192,37524
1013850,-115042,-108401,37760,315870,166812,-113034,226319,-118583,-113088,69187,233125,37528
1013851,-115026,-108383,37781,315882,166608,-113037,226293,-118565,-113091,69192,233101,37547
1013852,-115047,-108396,37745,315851,166359,-113075,226255,-118583,-113126,69177,233207,37514
1013853,-115121,-108432,37683,315730,166292,-113093,226174,-118591,-113145,69158,233325,37449
1013854,-115192,-108451,37634,315650,166379,-113106,226063,-118607,-113158,69180,233306,37398
1013855,-115282,-108470,37598,315562,166437,-113110,226035,-118621,-113161,69173,233287,37364
1013856,-115337,-108490,37575,315504,166477,-113102,225998,-118625,-113157,69182,233181,37340
1013857,-115312,-108525,37549,315452,166584,-113111,225982,-118646,-113164,69183,233047,37314
1013858,-115296,-108547,37534,315451,166678,-113145,226021,-118684,-113197,69136,232953,37297
1013859,-115285,-108535,37512,315470,166690,-113158,226040,-118702,-113211,69054,232986,37273
1013860,-115252,-108507,37499,315505,166714,-113210,226071,-118685,-113263,68978,233088,37264
1013861,-115236,-108489,37498,315499,166704,-113234,226115,-118649,-113284,68994,233116,37263
1013862,-115202,-108470,37502,315474,166755,-113224,226163,-118625,-113276,69002,233157,37267
1013863,-115168,-108470,37563,315569,166749,-113204,226182,-118616,-113260,68995,233224,37326
1013864,-115133,-108478,37594,315632,166750,-113162,226181,-118641,-113214,69065,233294,37361
1013865,-115097,-108445,37637,315674,166735,-113111,226225,-118622,-113165,69086,233258,37403
1013866,-115036,-108391,37702,315770,166755,-113038,226281,-118605,-113090,69099,233160,37468
1013867,-115019,-108371,37737,315846,166767,-113016,226261,-118573,-113068,69137,233118,37503
1013868,-115002,-108349,37758,315867,166787,-113008,226326,-118570,-113061,69170,233221,37524
1013869,-114980,-108339,37729,315838,166868,-113012,226402,-118536,-113065,69172,233176,37496
1013870,-114961,-108338,37694,315851,166884,-113070,226410,-118559,-113126,69121,233148,37457
1013871,-114972,-108336,37707,315840,166911,-113110,226381,-118574,-113165,69098,232986,37469
1013872,-115000,-108346,37686,315823,166904,-113113,226321,-118592,-113165,69112,232818,37453
1013873,-115043,-108381,37619,315727,166881,-113155,226234,-118629,-113209,69140,232880,37385
1013874,-115088,-108398,37577,315635,166826,-113198,226165,-118671,-113251,69088,233051,37340
1013875,-115129,-108416,37524,315555,166683,-113187,226117,-118693,-113241,69054,233222,37289
1013876,-115177,-108425,37533,315473,166478,-113234,226069,-118682,-113283,69088,233308,37297
1013877,-115181,-108434,37558,315432,166402,-113253,226054,-118678,-113307,69078,233297,37325
1013878,-115206,-108444,37632,315431,166273,-113266,226044,-118696,-113322,69108,233237,37397
1013879,-115212,-108456,37639,315395,166237,-113229,226019,-118696,-113284,69160,233222,37406
1013880,-115222,-108456,37618,315438,166267,-113186,226039,-118712,-113240,69155,233234,37385
1013881,-115229,-108456,37564,315570,166360,-113145,226066,-118707,-113198,69127,233218,37327
1013882,-115200,-108419,37524,315732,166398,-113109,226098,-118676,-113163,69127,233113,37289
1013883,-115185,-108398,37536,315735,166494,-113065,226150,-118647,-113120,69112,233065,37302
1013884,-115157,-108380,37540,315641,166679,-113045,226188,-118618,-113099,69110,233100,37302
1013885,-115103,-108354,37574,315676,166692,-113068,226197,-118602,-113122,69074,233276,37342
1013886,-115082,-108343,37629,315741,166671,-113058,226235,-118573,-113110,69090,233390,37395
1013887,-115055,-108331,37638,315707,166675,-113032,226253,-118529,-113086,69220,233379,37404
1013888,-115034,-108321,37676,315718,166692,-112991,226236,-118494,-113042,69337,233349,37443
1013889,-115025,-108317,37660,315753,166647,-112959,226261,-118483,-113015,69415,233295,37425
1013890,-115014,-108314,37619,315753,166617,-112966,226349,-118495,-113019,69417,233213,37383
1013891,-115034,-108326,37600,315741,166680,-112996,226348,-118531,-113047,69336,233128,37366
1013892,-115073,-108361,37588,315659,166854,-113025,226296,-118566,-113078,69219,233068,37356
1013893,-115131,-108400,37593,315633,166868,-113073,226241,-118612,-113124,69135,233048,37357
1013894,-115173,-108433,37601,315639,166804,-113113,226164,-118668,-113163,69109,233157,37366
1013895,-115191,-108463,37588,315631,166721,-113134,226123,-118686,-113188,69074,233205,37352
1013896,-115224,-108476,37593,315625,166602,-113141,226112,-118669,-113194,69049,233068,37357
1013897,-115233,-108469,37605,315637,166507,-113114,226098,-118663,-113168,69056,232893,37367
1013898,-115234,-108488,37603,315604,166572,-113118,226060,-118657,-113169,69053,232700,37367
1013899,-115254,-108482,37581,315541,166647,-113086,226004,-118664,-113139,69052,232705,37342
1013900,-115257,-108469,37561,315521,166677,-113113,225977,-118661,-113163,68992,232910,37324
1013901,-115250,-108460,37562,315495,166761,-113095,225958,-118652,-113147,69000,233019,37326
1013902,-115211,-108441,37560,315476,166804,-113071,225997,-118604,-113123,69057,232953,37323
1013903,-115171,-108423,37596,315467,166832,-113061,226064,-118582,-113117,69137,232931,37360
1013904,-115169,-108438,37623,315433,166801,-113052,226123,-118584,-113106,69131,233147,37385
1013905,-115156,-108423,37648,315485,166755,-113038,226152,-118557,-113092,69136,233308,37414
1013906,-115152,-108417,37658,315583,166702,-113002,226168,-118545,-113055,69203,233460,37422
1013907,-115148,-108394,37672,315672,166630,-113000,226194,-118513,-113053,69257,233485,37437
1013908,-115124,-108377,37709,315714,166631,-113034,226271,-118483,-113087,69277,233499,37474
1013909,-115097,-108361,37713,315742,166662,-113043,226308,-118470,-113094,69272,233371,37477
1013910,-115088,-108362,37723,315797,166685,-113055,226317,-118469,-113107,69249,233294,37487
1013911,-115163,-108395,37696,315784,166680,-113039,226276,-118500,-113090,69236,233281,37462
1013912,-115191,-108399,37692,315703,166578,-113024,226232,-118516,-113074,69236,233253,37459
1013913,-115203,-108414,37674,315594,166550,-113027,226139,-118569,-113078,69209,233264,37438
1013914,-115216,-108442,37636,315530,166521,-113057,226054,-118618,-113111,69212,233266,37398
1013915,-115244,-108458,37614,315480,166498,-113062,226024,-118634,-113117,69161,233228,37377
1013916,-115289,-108472,37601,315452,166423,-113047,226018,-118631,-113100,69122,233162,37363
1013917,-115298,-108487,37578,315450,166345,-113049,226023,-118635,-113105,69111,233090,37339
1013918,-115301,-108490,37555,315475,166298,-113102,226007,-118641,-113156,69080,233056,37319
1013919,-115296,-108484,37521,315442,166276,-113102,225996,-118642,-113154,69078,233079,37289
1013920,-115298,-108475,37516,315496,166273,-113073,225948,-118616,-113126,69079,233086,37281
1013921,-115291,-108476,37519,315525,166288,-113062,225989,-118597,-113112,69115,233081,37283
1013922,-115265,-108477,37528,315511,166358,-113059,226100,-118601,-113114,69116,233096,37294
1013923,-115245,-108451,37565,315507,166437,-113042,226182,-118600,-113095,69146,233048,37330
1013924,-115205,-108422,37593,315589,166453,-113051,226208,-118582,-113106,69229,232950,37359
1013925,-115160,-108411,37630,315711,166498,-113024,226212,-118575,-113080,69276,232853,37395
1013926,-115131,-108398,37660,315753,166511,-112973,226267,-118535,-113023,69301,232861,37426
1013927,-115099,-108369,37682,315749,166486,-112907,226321,-118498,-112959,69267,232889,37449
1013928,-115054,-108369,37732,315699,166537,-112875,226345,-118470,-112929,69319,232872,37497
1013929,-115050,-108352,37736,315620,166586,-112864,226327,-118461,-112918,69292,232970,37501
1013930,-115092,-108373,37685,315603,166720,-112900,226261,-118508,-112956,69208,233162,37451
1013931,-115118,-108397,37671,315607,166845,-112950,226196,-118560,-113003,69076,233263,37438
1013932,-115177,-108423,37649,315609,166847,-113015,226118,-118592,-113069,69000,233304,37416
1013933,-115240,-108466,37648,315569,166745,-113028,226069,-118611,-113081,68972,233294,37412
1013934,-115260,-108481,37665,315595,166659,-113054,225971,-118629,-113108,68877,233271,37431
1013935,-115258,-108494,37671,315608,166554,-113066,225909,-118614,-113118,68849,233200,37437
1013936,-115300,-108518,37668,315561,166450,-113059,225892,-118644,-113112,68858,233111,37434
1013937,-115357,-108546,37639,315520,166447,-113075,225828,-118665,-113128,68886,233193,37403
1013938,-115369,-108568,37629,315520,166456,-113083,225800,-118713,-113138,68922,233125,37396
1013939,-115379,-108590,37645,315527,166447,-113088,225814,-118708,-113143,68990,232999,37411
1013940,-115365,-108587,37645,315582,166474,-113157,225870,-118682,-113210,69066,232874,37408
1013941,-115309,-108561,37613,315653,166467,-113214,225965,-118666,-113271,69056,232836,37382
1013942,-115286,-108534,37609,315690,166522,-113243,225943,-118641,-113298,69069,232849,37373
1013943,-115244,-108500,37623,315585,166484,-113186,226011,-118609,-113241,69148,232940,37385
1013944,-115233,-108488,37627,315558,166307,-113136,226082,-118583,-113190,69198,233094,37392
1013945,-115225,-108503,37661,315575,166285,-113092,226069,-118592,-113146,69216,233314,37429
1013946,-115228,-108497,37676,315632,166426,-113049,226097,-118606,-113101,69263,233343,37442
1013947,-115204,-108487,37688,315572,166589,-113009,226206,-118580,-113062,69305,233269,37451
1013948,-115149,-108467,37744,315540,166667,-112983,226246,-118563,-113035,69251,233255,37506
1013949,-115137,-108472,37740,315536,166720,-113004,226281,-118569,-113056,69246,233289,37504
1013950,-115129,-108488,37739,315464,166688,-112991,226295,-118575,-113044,69239,233275,37503
1013951,-115135,-108485,37710,315460,166683,-112973,226238,-118585,-113025,69192,233185,37473
1013952,-115195,-108518,37670,315519,166690,-113016,226086,-118616,-113071,69186,233192,37437
1013953,-115229,-108531,37636,315586,166636,-113095,226023,-118655,-113145,69106,233131,37403
1013954,-115255,-108553,37568,315563,166655,-113162,226046,-118647,-113215,69144,232903,37331
1013955,-115234,-108546,37521,315559,166651,-113174,225957,-118625,-113227,69102,232757,37286
1013956,-115250,-108554,37505,315596,166642,-113214,225796,-118644,-113267,68999,232794,37269
1013957,-115309,-108573,37488,315617,166600,-113232,225772,-118682,-113286,68956,232893,37253
1013958,-115343,-108596,37451,315495,166476,-113217,225843,-118714,-113270,68980,233010,37217
1013959,-115375,-108600,37446,315440,166423,-113226,225898,-118741,-113278,68972,233086,37213
1013960,-115375,-108577,37466,315431,166383,-113232,225959,-118716,-113285,69002,233072,37230
1013961,-115331,-108562,37517,315513,166482,-113235,226006,-118663,-113289,68989,232852,37283
1013962,-115297,-108557,37565,315585,166621,-113271,226036,-118662,-113326,68898,232856,37333
1013963,-115273,-108549,37627,315598,166659,-113295,226078,-118658,-113347,68822,233032,37391
1013964,-115273,-108537,37640,315609,166540,-113235,226098,-118650,-113285,68929,233154,37407
1013965,-115246,-108541,37637,315684,166433,-113154,226164,-118641,-113207,69037,233203,37401
1013966,-115220,-108535,37633,315699,166494,-113075,226231,-118640,-113129,69096,233260,37397
1013967,-115181,-108522,37645,315686,166552,-113050,226262,-118637,-113105,69124,233348,37410
1013968,-115169,-108504,37680,315674,166609,-113028,226283,-118606,-113079,69149,233365,37447
1013969,-115140,-108493,37687,315667,166599,-113008,226271,-118566,-113065,69200,233255,37449
1013970,-115122,-108484,37707,315660,166541,-113071,226258,-118551,-113123,69186,233296,37470
1013971,-115137,-108502,37707,315646,166508,-113145,226278,-118597,-113199,69144,233321,37471
1013972,-115153,-108515,37701,315608,166525,-113179,226241,-118619,-113232,69110,233200,37468
1013973,-115188,-108543,37667,315535,166561,-113171,226157,-118647,-113223,69088,233137,37432
1013974,-115216,-108551,37692,315495,166559,-113150,226072,-118691,-113207,69072,233032,37457
1013975,-115212,-108532,37708,315521,166530,-113152,226007,-118690,-113208,69088,232765,37475
1013976,-115231,-108547,37680,315484,166521,-113171,225975,-118696,-113224,69018,232677,37445
1013977,-115265,-108575,37604,315418,166555,-113254,225907,-118734,-113308,68948,232945,37371
1013978,-115306,-108580,37590,315338,166419,-113291,225861,-118727,-113343,68961,233081,37354
1013979,-115295,-108579,37584,315296,166282,-113286,225893,-118708,-113340,68993,233125,37347
1013980,-115290,-108580,37580,315211,166217,-113248,225936,-118671,-113303,69056,233181,37344
1013981,-115268,-108563,37559,315198,166298,-113219,226013,-118639,-113273,69087,233078,37324
1013982,-115231,-108536,37580,315294,166432,-113209,226077,-118632,-113266,69097,232903,37345
1013983,-115203,-108516,37593,315422,166581,-113176,226135,-118625,-113230,69057,232729,37359
1013984,-115172,-108486,37578,315517,166731,-113145,226185,-118602,-113198,68994,232687,37344
1013985,-115120,-108467,37595,315597,166772,-113110,226230,-118584,-113164,68897,232698,37359
1013986,-115108,-108451,37636,315598,166701,-113055,226293,-118528,-113106,68948,232811,37403
1013987,-115088,-108433,37682,315676,166574,-113121,226296,-118531,-113172,69005,233019,37447
1013988,-115071,-108426,37668,315731,166554,-113223,226306,-118521,-113278,69060,233278,37434
1013989,-115049,-108406,37692,315765,166521,-113270,226315,-118535,-113321,69106,233307,37455
1013990,-115060,-108435,37629,315720,166515,-113226,226317,-118539,-113279,69136,233370,37391
1013991,-115092,-108453,37581,315628,166484,-113180,226299,-118559,-113232,69103,233442,37344
1013992,-115135,-108499,37558,315553,166515,-113140,226263,-118603,-113192,69094,233376,37323
1013993,-115170,-108518,37574,315529,166537,-113145,226225,-118656,-113196,69064,233223,37342
1013994,-115202,-108522,37582,315514,166507,-113140,226154,-118665,-113192,69062,233005,37345
1013995,-115240,-108528,37570,315529,166551,-113184,226076,-118665,-113236,68986,232958,37334
1013996,-115281,-108564,37531,315477,166581,-113231,226022,-118690,-113283,68897,233048,37295
1013997,-115279,-108577,37464,315430,166623,-113261,226005,-118694,-113315,68886,233019,37229
1013998,-115299,-108590,37450,315421,166540,-113288,226005,-118699,-113343,68889,233016,37217
1013999,-115299,-108582,37471,315421,166533,-113288,226012,-118710,-113342,68820,233057,37235
1014000,-115276,-108578,37497,315454,166528,-113251,226057,-118685,-113303,68854,232996,37261
1014001,-115265,-108568,37497,315477,166460,-113200,226084,-118662,-113255,68902,232996,37262
1014002,-115235,-108550,37524,315475,166507,-113204,226084,-118641,-113255,68925,233088,37296
1014003,-115199,-108538,37559,315405,166589,-113258,226131,-118595,-113310,68983,233069,37324
1014004,-115177,-108509,37650,315414,166580,-113288,226165,-118560,-113341,69052,233056,37415
1014005,-115164,-108503,37682,315473,166622,-113304,226188,-118556,-113360,69080,233152,37445
1014006,-115138,-108494,37675,315458,166685,-113253,226279,-118540,-113307,69122,233277,37440
1014007,-115090,-108483,37714,315442,166640,-113211,226312,-118525,-113264,69193,233358,37481
1014008,-115060,-108461,37727,315536,166605,-113115,226262,-118517,-113170,69242,233384,37492
1014009,-115043,-108445,37711,315607,166555,-113067,226220,-118516,-113123,69248,233398,37477
1014010,-115064,-108447,37668,315603,166602,-113058,226256,-118517,-113111,69227,233384,37434
1014011,-115092,-108448,37636,315622,166576,-113093,226256,-118542,-113146,69172,233364,37399
1014012,-115134,-108454,37632,315591,166631,-113157,226160,-118565,-113210,69105,233241,37397
1014013,-115131,-108459,37628,315550,166630,-113175,226081,-118567,-113228,69081,233100,37391
1014014,-115160,-108486,37616,315499,166573,-113199,226090,-118565,-113252,69071,233002,37381
1014015,-115193,-108513,37561,315421,166558,-113243,226137,-118609,-113293,69018,233071,37325
1014016,-115243,-108515,37580,315406,166530,-113244,226112,-118618,-113299,68928,233002,37345
1014017,-115266,-108520,37595,315454,166496,-113251,226069,-118630,-113303,68917,232929,37361
1014018,-115295,-108535,37574,315481,166513,-113267,226026,-118643,-113319,68873,232933,37339
1014019,-115271,-108503,37573,315556,166569,-113272,226013,-118651,-113326,68744,232888,37338
1014020,-115239,-108487,37583,315606,166534,-113227,226053,-118621,-113284,68790,232761,37348
1014021,-115230,-108495,37557,315575,166606,-113223,226060,-118610,-113276,68887,232762,37323
1014022,-115215,-108454,37615,315653,166671,-113191,226067,-118613,-113246,68923,232675,37379
1014023,-115169,-108411,37693,315694,166654,-113157,226128,-118575,-113208,68965,232540,37459
1014024,-115167,-108404,37736,315666,166738,-113144,226176,-118564,-113199,69003,232574,37499
1014025,-115154,-108404,37786,315637,166800,-113180,226212,-118561,-113232,68919,232853,37550
1014026,-115109,-108394,37835,315622,166693,-113179,226314,-118541,-113230,68987,233065,37600
1014027,-115094,-108377,37859,315634,166608,-113164,226361,-118520,-113217,69051,233200,37625
1014028,-115084,-108387,37840,315610,166659,-113121,226389,-118505,-113173,69103,233359,37609
1014029,-115101,-108401,37820,315628,166795,-113115,226331,-118544,-113168,69114,233493,37585
1014030,-115132,-108419,37786,315625,166776,-113084,226289,-118569,-113139,69110,233533,37547
1014031,-115145,-108429,37770,315552,166729,-113071,226230,-118585,-113124,69116,233592,37531
1014032,-115174,-108448,37775,315490,166700,-113087,226178,-118606,-113139,69119,233529,37539
1014033,-115222,-108447,37779,315441,166628,-113093,226128,-118613,-113146,69138,233371,37543
1014034,-115222,-108444,37800,315444,166522,-113100,226099,-118622,-113151,69121,233177,37565
1014035,-115271,-108448,37786,315496,166414,-113097,226050,-118618,-113151,69098,233149,37552
1014036,-115308,-108468,37770,315555,166357,-113131,226011,-118653,-113182,69023,233144,37535
1014037,-115329,-108451,37774,315573,166404,-113167,225982,-118663,-113223,68970,233069,37537
1014038,-115342,-108459,37748,315543,166424,-113197,225968,-118691,-113246,68956,233001,37515
1014039,-115314,-108446,37716,315560,166382,-113226,225964,-118688,-113277,68980,232953,37480
1014040,-115283,-108419,37727,315578,166326,-113232,225956,-118681,-113286,68996,233057,37494
1014041,-115265,-108419,37747,315513,166373,-113187,225948,-118643,-113244,69007,233081,37515
1014042,-115290,-108435,37789,315462,166495,-113148,225983,-118638,-113202,69050,233123,37555
1014043,-115250,-108451,37785,315477,166492,-113108,226062,-118604,-113159,69111,233186,37551
1014044,-115199,-108432,37786,315471,166383,-113066,226104,-118585,-113118,69175,233318,37551
1014045,-115160,-108407,37776,315527,166369,-113064,226165,-118564,-113118,69226,233345,37541
1014046,-115096,-108390,37797,315569,166525,-113041,226197,-118542,-113096,69234,233339,37564
1014047,-115026,-108352,37843,315625,166722,-113099,226258,-118491,-113154,69211,233047,37606
1014048,-114983,-108313,37920,315703,166838,-113111,226311,-118466,-113165,69181,232880,37685
1014049,-114977,-108308,37948,315769,166783,-113107,226315,-118460,-113161,69084,232992,37711
1014050,-114980,-108311,37935,315803,166748,-113106,226278,-118466,-113158,68957,233129,37701
1014051,-115008,-108342,37893,315758,166681,-113072,226233,-118487,-113123,68999,233106,37656
1014052,-115044,-108355,37848,315772,166789,-113101,226196,-118557,-113155,68954,232977,37614
1014053,-115081,-108373,37853,315802,166879,-113133,226097,-118633,-113187,68891,232878,37618
1014054,-115131,-108400,37864,315763,166890,-113186,226017,-118663,-113242,68962,232833,37631
1014055,-115193,-108428,37866,315637,166727,-113198,225982,-118675,-113253,69064,232894,37629
1014056,-115204,-108455,37848,315619,166609,-113248,225964,-118709,-113303,69028,232955,37611
1014057,-115233,-108475,37831,315638,166512,-113247,225942,-118734,-113301,68997,233032,37596
1014058,-115295,-108468,37798,315635,166469,-113221,225936,-118750,-113274,68893,233094,37564
1014059,-115304,-108460,37780,315561,166509,-113199,225921,-118753,-113253,68905,233103,37545
1014060,-115302,-108473,37755,315448,166513,-113158,225941,-118721,-113210,68978,233148,37522
1014061,-115280,-108454,37758,315449,166514,-113121,225955,-118689,-113174,69038,233144,37524
1014062,-115259,-108441,37762,315502,166510,-113111,225985,-118677,-113164,69070,233181,37524
1014063,-115226,-108431,37775,315521,166571,-113109,226027,-118659,-113163,69023,233293,37539
1014064,-115168,-108430,37758,315557,166661,-113164,226095,-118631,-113217,69001,233355,37525
1014065,-115136,-108406,37789,315598,166723,-113173,226109,-118615,-113229,69034,233386,37556
1014066,-115091,-108385,37868,315697,166776,-113164,226163,-118589,-113214,69038,233322,37636
1014067,-115094,-108373,37917,315722,166806,-113113,226175,-118561,-113166,69084,233328,37684
1014068,-115097,-108373,37909,315759,166831,-113081,226260,-118559,-113134,69116,233337,37671
1014069,-115072,-108373,37909,315758,166869,-113052,226328,-118557,-113105,69189,233222,37674
1014070,-115045,-108394,37890,315814,166912,-113053,226320,-118567,-113106,69159,233077,37652
1014071,-115047,-108398,37850,315812,166887,-113058,226303,-118579,-113113,69149,233001,37612
1014072,-115040,-108415,37819,315703,166777,-113049,226275,-118571,-113101,69127,232966,37587
1014073,-115101,-108442,37783,315572,166782,-113085,226250,-118621,-113139,69066,232958,37545
1014074,-115098,-108436,37785,315603,166760,-113096,226217,-118629,-113146,69136,232589,37550
1014075,-115130,-108423,37745,315598,166622,-113083,226184,-118612,-113136,69164,232483,37512
1014076,-115165,-108433,37710,315566,166614,-113127,226113,-118653,-113180,69006,232625,37476
1014077,-115231,-108482,37670,315484,166670,-113163,226032,-118699,-113215,68936,232885,37436
1014078,-115283,-108515,37656,315371,166586,-113180,225991,-118699,-113231,68984,232955,37422
1014079,-115268,-108511,37699,315334,166493,-113176,226020,-118678,-113226,68985,233005,37460
1014080,-115272,-108522,37761,315364,166410,-113157,226036,-118653,-113211,68935,233163,37524
1014081,-115265,-108503,37751,315366,166348,-113134,226043,-118647,-113188,68948,233324,37517
1014082,-115222,-108487,37770,315435,166313,-113180,226072,-118634,-113235,68964,233407,37535
1014083,-115169,-108472,37727,315487,166344,-113214,226088,-118591,-113266,69031,233435,37493
1014084,-115146,-108484,37693,315537,166366,-113169,226085,-118550,-113223,69082,233478,37455
1014085,-115150,-108475,37705,315575,166370,-113109,226120,-118531,-113165,69106,233565,37469
1014086,-115112,-108438,37720,315605,166445,-113059,226178,-118520,-113112,69131,233581,37487
1014087,-115101,-108416,37748,315578,166492,-112994,226245,-118507,-113052,69164,233592,37513
1014088,-115082,-108407,37811,315663,166534,-112965,226275,-118508,-113016,69188,233553,37576
1014089,-115064,-108415,37881,315712,166548,-112965,226309,-118512,-113017,69227,233424,37646
1014090,-115047,-108388,37940,315716,166606,-112988,226318,-118512,-113044,69206,233258,37706
1014091,-115033,-108376,37905,315728,166697,-113005,226259,-118538,-113060,69158,233052,37670
1014092,-115036,-108384,37835,315737,166733,-113048,226154,-118559,-113101,69121,232982,37599
1014093,-115050,-108380,37759,315719,166658,-113093,226050,-118576,-113149,69083,232970,37524
1014094,-115087,-108404,37712,315654,166556,-113124,226022,-118572,-113175,69054,233032,37478
1014095,-115156,-108459,37670,315533,166552,-113135,226014,-118593,-113188,69047,233114,37432
1014096,-115234,-108507,37644,315481,166564,-113160,226039,-118606,-113211,69044,233095,37409
1014097,-115262,-108537,37672,315510,166589,-113212,226065,-118634,-113266,69012,233015,37437
1014098,-115281,-108541,37694,315534,166624,-113262,226058,-118662,-113319,68983,232896,37459
1014099,-115283,-108532,37683,315533,166700,-113325,226002,-118700,-113376,68972,232951,37447
1014100,-115290,-108542,37674,315520,166713,-113322,225994,-118686,-113376,68976,233088,37441
1014101,-115280,-108529,37667,315520,166727,-113307,226011,-118674,-113361,69004,233105,37433
1014102,-115230,-108498,37686,315532,166757,-113256,226047,-118668,-113310,69012,233073,37451
1014103,-115191,-108486,37699,315574,166788,-113201,226076,-118650,-113253,69019,233044,37467
1014104,-115159,-108461,37750,315644,166711,-113166,226054,-118629,-113220,69094,233089,37517
1014105,-115108,-108429,37779,315695,166638,-113162,226098,-118592,-113219,69106,233134,37541
1014106,-115079,-108404,37790,315601,166587,-113101,226207,-118541,-113154,69195,233243,37554
1014107,-115041,-108370,37814,315584,166552,-113061,226260,-118511,-113116,69246,233259,37580
1014108,-115013,-108361,37838,315624,166598,-113059,226269,-118486,-113113,69238,233317,37603
1014109,-115034,-108367,37825,315601,166603,-113024,226295,-118473,-113074,69206,233403,37590
1014110,-115078,-108366,37832,315570,166670,-113014,226339,-118499,-113066,69183,233329,37597
1014111,-115124,-108380,37845,315566,166674,-113025,226317,-118538,-113078,69185,233235,37613
1014112,-115129,-108367,37847,315493,166669,-113031,226282,-118537,-113086,69166,233038,37610
1014113,-115129,-108383,37851,315434,166677,-113053,226234,-118534,-113104,69088,232887,37616
1014114,-115155,-108397,37811,315464,166674,-113092,226200,-118569,-113143,69009,232843,37579
1014115,-115183,-108432,37758,315475,166626,-113140,226165,-118610,-113192,68942,232918,37524
1014116,-115166,-108435,37710,315485,166503,-113171,226139,-118637,-113227,68910,232899,37474
1014117,-115173,-108437,37679,315558,166401,-113185,226122,-118632,-113237,68868,232833,37446
1014118,-115181,-108416,37645,315654,166291,-113229,226091,-118578,-113279,68895,232623,37410
1014119,-115171,-108418,37616,315668,166243,-113286,226078,-118548,-113340,68951,232600,37382
1014120,-115148,-108407,37664,315687,166177,-113309,226064,-118547,-113362,68938,232737,37425
1014121,-115159,-108427,37711,315546,166181,-113264,226099,-118532,-113319,68942,232958,37478
1014122,-115197,-108456,37717,315427,166276,-113192,226088,-118535,-113246,69002,233202,37483
1014123,-115228,-108472,37710,315431,166423,-113114,226074,-118533,-113165,69060,233306,37475
1014124,-115219,-108462,37730,315535,166531,-113090,226097,-118572,-113142,69062,233390,37494
1014125,-115183,-108434,37741,315650,166577,-113114,226096,-118573,-113165,69038,233481,37508
1014126,-115108,-108414,37745,315700,166584,-113098,226148,-118542,-113150,69105,233511,37507
1014127,-115090,-108391,37790,315779,166599,-113112,226202,-118541,-113168,69146,233517,37557
1014128,-115056,-108335,37814,315810,166640,-113095,226261,-118512,-113148,69124,233462,37581
1014129,-115036,-108306,37811,315749,166674,-113061,226307,-118467,-113112,69141,233408,37576
1014130,-115047,-108324,37810,315711,166750,-113061,226337,-118455,-113117,69096,233353,37575
1014131,-115050,-108326,37825,315654,166814,-113098,226334,-118477,-113153,69060,233222,37589
1014132,-115090,-108336,37794,315585,166801,-113099,226279,-118491,-113154,69031,233214,37563
1014133,-115137,-108361,37799,315499,166817,-113105,226140,-118503,-113160,69011,233224,37565
1014134,-115182,-108368,37797,315459,166839,-113139,226089,-118516,-113195,69018,233078,37562
1014135,-115218,-108376,37826,315515,166756,-113171,226089,-118561,-113222,69002,232993,37592
1014136,-115218,-108406,37786,315577,166729,-113202,226044,-118590,-113256,68951,232924,37553
1014137,-115217,-108409,37763,315632,166723,-113203,226038,-118589,-113257,68966,232725,37531
1014138,-115222,-108425,37752,315600,166697,-113193,226064,-118564,-113246,69021,232557,37520
1014139,-115218,-108423,37751,315541,166569,-113185,226056,-118543,-113239,69025,232700,37516
1014140,-115194,-108405,37744,315539,166566,-113225,226041,-118535,-113279,68925,232917,37509
1014141,-115175,-108419,37763,315508,166664,-113216,226060,-118532,-113270,68909,232966,37527
1014142,-115148,-108411,37783,315550,166702,-113203,226123,-118524,-113256,68961,232979,37549
1014143,-115125,-108407,37796,315622,166646,-113141,226180,-118513,-113192,69011,233008,37564
1014144,-115137,-108392,37802,315661,166527,-113125,226243,-118501,-113179,69074,233172,37567
1014145,-115103,-108373,37825,315652,166498,-113098,226286,-118485,-113151,69107,233279,37592
1014146,-115055,-108357,37837,315601,166499,-113055,226389,-118427,-113106,69195,233334,37601
1014147,-115019,-108327,37865,315726,166459,-113007,226436,-118411,-113061,69206,233258,37629
1014148,-114977,-108279,37902,315831,166477,-112966,226450,-118391,-113023,69231,233147,37667
1014149,-114972,-108266,37848,315886,166598,-112960,226419,-118386,-113016,69283,233069,37609
1014150,-114978,-108276,37760,315856,166668,-113000,226402,-118417,-113053,69252,233256,37527
1014151,-115008,-108291,37733,315730,166707,-113021,226333,-118442,-113071,69195,233439,37498
1014152,-115062,-108320,37708,315510,166699,-113016,226258,-118469,-113069,69242,233500,37474
1014153,-115115,-108367,37718,315389,166684,-113029,226187,-118499,-113080,69255,233543,37482
1014154,-115152,-108407,37729,315358,166680,-113056,226090,-118522,-113109,69245,233489,37494
1014155,-115149,-108414,37717,315364,166652,-113053,226047,-118533,-113104,69182,233368,37482
1014156,-115152,-108423,37725,315349,166605,-113073,226048,-118538,-113127,69056,233317,37490
1014157,-115174,-108426,37705,315392,166557,-113099,226088,-118529,-113151,69009,233210,37472
1014158,-115208,-108451,37710,315479,166475,-113102,226069,-118538,-113157,68996,233199,37475
1014159,-115222,-108443,37733,315551,166494,-113083,226016,-118551,-113139,69010,233144,37499
1014160,-115220,-108446,37792,315583,166564,-113083,226044,-118553,-113139,69019,233027,37556
1014161,-115181,-108439,37810,315607,166568,-113046,226118,-118522,-113099,69009,232933,37574
1014162,-115129,-108410,37825,315636,166594,-113038,226197,-118516,-113090,68971,232945,37589
1014163,-115083,-108386,37858,315679,166625,-113083,226215,-118517,-113134,68995,232985,37624
1014164,-115072,-108372,37876,315702,166640,-113142,226235,-118485,-113196,69075,233072,37643
1014165,-115040,-108347,37902,315760,166605,-113142,226283,-118452,-113195,69112,233112,37668
1014166,-114998,-108304,37926,315796,166602,-113133,226355,-118422,-113181,69123,233156,37692
1014167,-114986,-108312,37893,315777,166666,-113078,226383,-118398,-113130,69167,233229,37659
1014168,-114975,-108308,37872,315808,166704,-113050,226392,-118403,-113101,69251,233330,37637
1014169,-114963,-108303,37862,315745,166795,-113029,226391,-118417,-113082,69295,233363,37629
1014170,-114968,-108308,37847,315714,166796,-112987,226336,-118417,-113037,69291,233348,37613
1014171,-114991,-108325,37851,315693,166760,-112991,226319,-118417,-113044,69235,233313,37614
1014172,-115035,-108332,37871,315658,166691,-113005,226327,-118461,-113057,69128,233281,37636
1014173,-115067,-108374,37853,315559,166553,-112990,226266,-118482,-113043,69141,233303,37618
1014174,-115093,-108377,37882,315563,166413,-113025,226170,-118520,-113077,69119,233303,37646
1014175,-115116,-108407,37851,315589,166348,-113047,226094,-118529,-113101,69072,233306,37612
1014176,-115136,-108411,37797,315622,166269,-113042,226107,-118520,-113093,69069,233113,37564
1014177,-115150,-108398,37735,315594,166196,-113034,226146,-118514,-113085,69117,232934,37500
1014178,-115192,-108420,37689,315542,166258,-113055,226130,-118519,-113107,69116,232933,37453
1014179,-115219,-108436,37619,315448,166440,-113051,226088,-118539,-113105,69069,233047,37384
1014180,-115211,-108435,37619,315376,166548,-113053,226117,-118549,-113110,69073,233029,37384
1014181,-115179,-108416,37652,315409,166653,-113053,226160,-118543,-113109,69056,232946,37418
1014182,-115166,-108414,37684,315474,166751,-113071,226187,-118535,-113125,69047,232949,37451
1014183,-115137,-108422,37704,315513,166764,-113062,226243,-118521,-113114,69090,232978,37470
1014184,-115109,-108409,37761,315579,166797,-113105,226255,-118526,-113161,69106,233047,37525
1014185,-115123,-108407,37785,315619,166876,-113105,226207,-118513,-113157,69129,233216,37550
1014186,-115091,-108366,37813,315666,166986,-113057,226218,-118500,-113109,69133,233274,37582
1014187,-115063,-108343,37871,315696,167018,-113016,226227,-118481,-113070,69131,233305,37637
1014188,-115007,-108305,37902,315774,167030,-112996,226165,-118469,-113049,69124,233324,37664
1014189,-115001,-108307,37838,315859,166952,-112965,226117,-118438,-113021,69203,233355,37604
1014190,-115002,-108304,37792,315891,166909,-113003,226166,-118452,-113059,69180,233352,37558
1014191,-115029,-108307,37791,315884,166863,-113053,226149,-118453,-113108,69187,233297,37555
1014192,-115064,-108352,37788,315780,166764,-113069,226054,-118444,-113123,69209,233387,37552
1014193,-115103,-108398,37792,315691,166658,-113105,226023,-118479,-113158,69166,233424,37561
1014194,-115138,-108420,37789,315625,166544,-113124,226089,-118460,-113177,69074,233365,37556
1014195,-115157,-108431,37789,315607,166559,-113177,226172,-118471,-113229,69041,233110,37557
1014196,-115197,-108453,37752,315561,166558,-113196,226166,-118505,-113248,69013,233005,37516
1014197,-115172,-108441,37757,315542,166429,-113155,226174,-118518,-113207,68935,232951,37520
1014198,-115141,-108429,37739,315544,166292,-113117,226148,-118532,-113170,68902,232881,37506
1014199,-115149,-108438,37716,315504,166224,-113068,226116,-118549,-113121,68957,232926,37481
1014200,-115140,-108429,37714,315492,166214,-113042,226115,-118571,-113099,68994,233019,37484
1014201,-115108,-108423,37683,315499,166185,-113018,226103,-118560,-113073,69033,233086,37450
1014202,-115111,-108426,37688,315484,166383,-113012,226095,-118541,-113068,69080,233156,37453
1014203,-115091,-108421,37685,315462,166530,-112987,226087,-118507,-113040,69170,233142,37450
1014204,-115119,-108421,37664,315499,166564,-112954,226087,-118502,-113007,69239,233258,37430
1014205,-115118,-108427,37699,315604,166664,-112983,226076,-118504,-113039,69215,233476,37464
1014206,-115090,-108398,37794,315756,166776,-113003,226084,-118519,-113055,69144,233458,37558
1014207,-115071,-108386,37850,315907,166881,-113018,226117,-118517,-113069,69132,233412,37617
1014208,-115058,-108385,37828,315967,166968,-113012,226130,-118508,-113063,69150,233510,37593
1014209,-115042,-108375,37776,315954,167066,-113009,226148,-118490,-113064,69131,233516,37542
1014210,-115029,-108379,37770,315957,167101,-113015,226131,-118502,-113067,69192,233403,37536
1014211,-115010,-108377,37788,315870,167095,-113007,226064,-118507,-113062,69219,233292,37555
1014212,-114995,-108374,37820,315760,166978,-112984,226011,-118491,-113040,69197,233140,37583
1014213,-115046,-108410,37804,315685,166884,-112990,225999,-118497,-113040,69219,233094,37569
1014214,-115119,-108436,37767,315635,166838,-113026,225929,-118529,-113080,69131,233246,37533
1014215,-115152,-108461,37742,315611,166844,-113078,225890,-118577,-113131,68991,233379,37508
1014216,-115190,-108481,37728,315585,166813,-113108,225871,-118576,-113164,68950,233315,37494
1014217,-115209,-108481,37693,315594,166797,-113123,225912,-118601,-113177,68915,233233,37461
1014218,-115218,-108479,37662,315612,166755,-113140,225966,-118623,-113192,68893,233140,37428
1014219,-115222,-108484,37676,315627,166713,-113166,226002,-118647,-113220,68911,233118,37441
1014220,-115225,-108463,37687,315617,166660,-113161,225994,-118629,-113217,69025,233177,37451
1014221,-115203,-108425,37720,315623,166559,-113145,225983,-118576,-113199,69099,233189,37484
1014222,-115160,-108383,37765,315696,166526,-113145,225995,-118537,-113196,69086,233182,37533
1014223,-115166,-108355,37801,315728,166559,-113126,226025,-118508,-113179,69070,233198,37565
1014224,-115138,-108348,37832,315673,166642,-113094,226050,-118479,-113149,69065,233308,37593
1014225,-115099,-108332,37878,315669,166693,-113029,226061,-118471,-113081,69056,233333,37642
1014226,-115058,-108296,37925,315669,166703,-112998,226139,-118452,-113052,69119,233413,37691
1014227,-115031,-108293,37904,315646,166686,-112983,226232,-118433,-113036,69175,233487,37668
1014228,-114996,-108283,37884,315697,166702,-112939,226299,-118429,-112991,69220,233469,37651
1014229,-115001,-108282,37887,315716,166729,-112932,226294,-118413,-112984,69255,233502,37651
1014230,-115005,-108279,37924,315750,166710,-112978,226271,-118446,-113030,69255,233527,37688
1014231,-115006,-108315,37964,315750,166500,-112980,226251,-118451,-113038,69268,233556,37729
1014232,-115046,-108340,37926,315750,166484,-112989,226200,-118457,-113044,69251,233460,37691
1014233,-115077,-108346,37878,315771,166479,-113034,226126,-118469,-113086,69205,233322,37646
1014234,-115093,-108365,37822,315684,166522,-113055,226077,-118495,-113108,69199,233237,37587
1014235,-115101,-108368,37785,315662,166578,-113055,226097,-118492,-113108,69115,233029,37552
1014236,-115140,-108388,37750,315653,166608,-113056,226108,-118492,-113108,69103,232824,37514
1014237,-115162,-108414,37702,315625,166696,-113095,226076,-118529,-113148,69088,232845,37466
1014238,-115195,-108414,37696,315633,166718,-113123,226020,-118560,-113176,69041,232943,37459
1014239,-115216,-108415,37700,315623,166700,-113126,225991,-118582,-113178,69031,233057,37464
1014240,-115211,-108411,37685,315628,166679,-113098,225977,-118560,-113151,69054,233120,37449
1014241,-115201,-108426,37731,315658,166713,-113055,225982,-118552,-113108,69087,233114,37497
1014242,-115182,-108410,37718,315700,166758,-113036,226020,-118520,-113088,69081,233083,37482
1014243,-115144,-108364,37770,315808,166667,-113005,226052,-118518,-113057,69097,233169,37537
1014244,-115104,-108327,37813,315886,166514,-112981,226089,-118485,-113034,69121,233214,37576
1014245,-115058,-108305,37884,315846,166546,-112996,226141,-118432,-113047,69186,233216,37651
1014246,-115000,-108276,37927,315799,166583,-112997,226191,-118377,-113049,69215,233256,37692
1014247,-114938,-108228,37996,315884,166560,-112975,226196,-118322,-113030,69170,233241,37759
1014248,-114889,-108202,38016,315879,166575,-113005,226190,-118275,-113061,69208,233297,37778
1014249,-114913,-108219,37973,315732,166617,-112994,226244,-118221,-113049,69245,233437,37737
1014250,-114967,-108248,37949,315751,166769,-113030,226286,-118280,-113086,69211,233426,37713
1014251,-115043,-108280,37930,315806,166934,-113058,226237,-118338,-113111,69137,233408,37698
1014252,-115106,-108314,37888,315761,166992,-113025,226151,-118387,-113080,69090,233455,37652
1014253,-115122,-108324,37887,315738,166975,-113008,226131,-118461,-113062,69034,233309,37654
1014254,-115121,-108338,37885,315730,167003,-113011,226064,-118517,-113067,68988,233126,37651
1014255,-115149,-108337,37857,315731,166960,-113053,225964,-118578,-113106,69003,233186,37621
1014256,-115183,-108360,37822,315757,166898,-113120,225863,-118607,-113173,68987,233293,37587
1014257,-115209,-108380,37783,315732,166780,-113121,225827,-118607,-113176,69064,233334,37546
1014258,-115235,-108392,37747,315670,166676,-113109,225828,-118593,-113161,69105,233331,37512
1014259,-115222,-108395,37730,315627,166683,-113069,225873,-118564,-113123,69100,233185,37497
1014260,-115210,-108374,37751,315628,166761,-113019,225938,-118550,-113072,69079,233041,37518
1014261,-115181,-108349,37776,315688,166703,-112990,225994,-118516,-113043,69059,232998,37544
1014262,-115162,-108342,37825,315699,166657,-112982,225970,-118500,-113034,69081,233156,37589
1014263,-115125,-108327,37820,315687,166698,-112994,226026,-118464,-113047,69078,233233,37587
1014264,-115081,-108310,37847,315600,166772,-112980,226106,-118439,-113030,69063,233273,37614
1014265,-115036,-108268,37915,315623,166711,-112966,226184,-118398,-113018,69147,233227,37682
1014266,-114982,-108221,37906,315688,166687,-112937,226250,-118364,-112991,69181,233244,37670
1014267,-114942,-108190,37821,315756,166687,-112924,226315,-118359,-112979,69149,233334,37587
1014268,-114933,-108168,37707,315815,166638,-112872,226417,-118317,-112928,69200,233362,37472
1014269,-114955,-108161,37693,315838,166589,-112847,226407,-118318,-112902,69188,233493,37457
1014270,-114966,-108172,37725,315828,166646,-112857,226346,-118326,-112912,69202,233519,37491
1014271,-114977,-108213,37853,315848,166702,-112894,226213,-118339,-112947,69118,233413,37620
1014272,-115016,-108257,37837,315808,166863,-112961,226136,-118366,-113015,69037,233302,37604
1014273,-115073,-108271,37857,315822,166873,-113019,226137,-118396,-113074,69000,233145,37623
1014274,-115087,-108259,37910,315753,166811,-113045,226094,-118411,-113098,68991,232984,37676
1014275,-115067,-108267,37882,315663,166749,-113052,226023,-118408,-113104,69040,232939,37646
1014276,-115103,-108278,37855,315582,166675,-113034,225984,-118422,-113087,69004,232915,37620
1014277,-115101,-108313,37824,315562,166611,-113036,226109,-118464,-113090,68927,232855,37590
1014278,-115129,-108333,37766,315606,166567,-113090,226138,-118528,-113142,68868,232988,37534
1014279,-115138,-108336,37739,315601,166588,-113115,226089,-118530,-113166,68849,233083,37504
1014280,-115117,-108334,37719,315597,166654,-113113,226075,-118511,-113165,68919,233047,37485
1014281,-115093,-108329,37747,315663,166633,-113101,226109,-118476,-113154,68984,232946,37513
1014282,-115088,-108331,37763,315711,166605,-113072,226123,-118474,-113124,69068,233045,37529
1014283,-115103,-108326,37791,315725,166568,-113029,226150,-118439,-113083,69149,233125,37556
1014284,-115085,-108315,37815,315777,166583,-112999,226141,-118438,-113052,69182,233206,37577
1014285,-115055,-108311,37837,315792,166664,-112965,226120,-118420,-113016,69229,233259,37604
1014286,-115011,-108286,37848,315774,166739,-112954,226156,-118393,-113009,69273,233327,37612
1014287,-114977,-108275,37868,315800,166807,-112937,226184,-118386,-112990,69293,233338,37633
1014288,-114956,-108255,37894,315861,166825,-112934,226246,-118370,-112987,69251,233402,37660
1014289,-114957,-108239,37900,315828,166867,-112904,226259,-118368,-112956,69212,233458,37666
1014290,-114979,-108252,37894,315855,166748,-112888,226271,-118397,-112941,69181,233522,37658
1014291,-114964,-108262,37888,315868,166581,-112884,226276,-118418,-112941,69210,233480,37651
1014292,-114967,-108280,37879,315845,166422,-112925,226227,-118435,-112978,69224,233426,37643
1014293,-115015,-108307,37853,315796,166383,-112947,226169,-118449,-112998,69177,233403,37621
1014294,-115056,-108333,37810,315750,166434,-113039,226103,-118482,-113093,69146,233402,37574
1014295,-115088,-108359,37733,315694,166423,-113066,226089,-118455,-113121,69147,233356,37497
1014296,-115116,-108372,37667,315662,166539,-113114,226042,-118477,-113168,69098,233235,37431
1014297,-115129,-108380,37639,315602,166720,-113137,226030,-118518,-113189,69020,233155,37405
1014298,-115152,-108375,37625,315576,166791,-113154,226017,-118559,-113207,68985,233078,37392
1014299,-115179,-108383,37628,315531,166886,-113093,226014,-118557,-113148,69007,232957,37394
1014300,-115165,-108364,37658,315584,166919,-113008,226005,-118551,-113061,69006,232781,37426
1014301,-115168,-108363,37740,315668,166916,-112969,226016,-118539,-113025,69050,232706,37504
1014302,-115148,-108360,37786,315692,166869,-112970,226051,-118527,-113019,69057,232816,37553
1014303,-115146,-108340,37796,315715,166817,-112941,226067,-118505,-112994,69025,233047,37558
1014304,-115128,-108354,37782,315761,166762,-112899,226045,-118485,-112947,69035,233271,37549
1014305,-115112,-108322,37813,315787,166723,-112860,226041,-118464,-112914,69021,233447,37581
1014306,-115048,-108293,37834,315803,166667,-112829,226075,-118410,-112881,69063,233499,37599
1014307,-115025,-108280,37862,315732,166661,-112811,226162,-118365,-112864,69177,233525,37623
1014308,-114983,-108272,37831,315668,166711,-112792,226290,-118303,-112844,69241,233406,37595
1014309,-114965,-108255,37796,315714,166711,-112828,226305,-118300,-112882,69324,233395,37558
1014310,-114961,-108292,37725,315741,166614,-112848,226337,-118309,-112902,69359,233484,37493
1014311,-114980,-108332,37717,315718,166630,-112868,226319,-118354,-112920,69352,233372,37484
1014312,-114998,-108356,37729,315697,166654,-112915,226278,-118385,-112966,69307,233272,37493
1014313,-115007,-108365,37727,315731,166571,-112972,226217,-118461,-113026,69203,233215,37494
1014314,-115041,-108378,37733,315773,166482,-113028,226151,-118509,-113081,69144,233246,37502
1014315,-115079,-108387,37698,315691,166465,-113052,226040,-118516,-113106,69135,233315,37463
1014316,-115107,-108396,37646,315548,166527,-113070,225929,-118522,-113120,69102,233312,37415
1014317,-115143,-108408,37665,315567,166556,-113087,225909,-118544,-113143,69053,233262,37431
1014318,-115187,-108429,37666,315612,166607,-113102,225883,-118576,-113156,68969,233250,37431
1014319,-115190,-108443,37694,315661,166598,-113074,225864,-118590,-113129,68939,233225,37460
1014320,-115165,-108426,37711,315660,166615,-113045,225819,-118560,-113097,68926,233196,37475
1014321,-115153,-108426,37710,315583,166628,-113007,225842,-118517,-113058,68954,233179,37475
1014322,-115128,-108377,37691,315555,166618,-112993,226020,-118500,-113046,68970,233134,37459
1014323,-115099,-108358,37741,315631,166714,-112996,226100,-118502,-113046,69022,232960,37506
1014324,-115084,-108349,37739,315665,166769,-112957,226211,-118486,-113010,69097,232805,37507
1014325,-115019,-108347,37742,315641,166820,-112945,226277,-118469,-112999,69023,232933,37505
1014326,-114962,-108317,37772,315619,166819,-112943,226356,-118448,-112995,69068,233003,37541
1014327,-114927,-108312,37788,315634,166807,-112932,226380,-118431,-112987,69203,233017,37554
1014328,-114915,-108309,37781,315641,166872,-112921,226390,-118419,-112973,69260,233085,37547
1014329,-114932,-108315,37782,315661,166917,-112895,226389,-118408,-112949,69243,233109,37546
1014330,-114951,-108307,37785,315714,166867,-112935,226339,-118422,-112993,69189,233209,37551
1014331,-114968,-108315,37775,315735,166782,-113005,226272,-118455,-113056,69118,233349,37544
1014332,-115011,-108348,37733,315694,166748,-113115,226209,-118494,-113168,69087,233470,37498
1014333,-115046,-108378,37690,315665,166690,-113161,226150,-118507,-113211,69062,233464,37456
1014334,-115059,-108388,37674,315650,166611,-113160,226089,-118522,-113214,69057,233402,37441
1014335,-115118,-108416,37626,315647,166540,-113108,226041,-118533,-113159,69074,233334,37395
1014336,-115165,-108438,37592,315602,166524,-113062,226012,-118569,-113116,69022,233346,37359
1014337,-115194,-108455,37600,315634,166496,-113040,225982,-118614,-113091,68951,233381,37368
1014338,-115204,-108458,37575,315672,166407,-113025,225957,-118625,-113080,68910,233350,37339
1014339,-115189,-108452,37534,315668,166338,-112993,225991,-118597,-113050,68899,233343,37299
1014340,-115158,-108421,37511,315634,166221,-112937,226040,-118548,-112990,68910,233331,37276
1014341,-115149,-108404,37546,315545,166159,-112903,226063,-118518,-112954,69006,233343,37312
1014342,-115141,-108397,37564,315384,166293,-112883,226109,-118495,-112936,69127,233337,37328
1014343,-115109,-108395,37603,315290,166430,-112891,226161,-118474,-112941,69174,233328,37369
1014344,-115102,-108372,37645,315358,166479,-112885,226162,-118469,-112937,69225,233358,37408
1014345,-115119,-108333,37675,315540,166560,-112903,226117,-118463,-112957,69248,233396,37441
1014346,-115101,-108323,37671,315679,166676,-112880,226131,-118450,-112933,69295,233364,37441
1014347,-115056,-108319,37696,315706,166836,-112863,226138,-118442,-112913,69322,233346,37464
1014348,-115016,-108295,37743,315777,166977,-112892,226136,-118455,-112944,69280,233332,37509
1014349,-115018,-108267,37830,315862,166972,-112871,226137,-118448,-112925,69266,233249,37593
1014350,-115050,-108286,37855,315915,166952,-112853,226138,-118450,-112904,69249,233193,37620
1014351,-115073,-108305,37814,315936,166889,-112884,226114,-118471,-112935,69233,233269,37579
1014352,-115068,-108321,37762,315879,166787,-112918,226115,-118482,-112971,69187,233227,37530
1014353,-115092,-108346,37757,315793,166802,-112947,226078,-118512,-112999,69124,233194,37523
1014354,-115111,-108344,37717,315672,166789,-112957,226047,-118530,-113010,69023,233194,37485
1014355,-115128,-108361,37676,315616,166735,-112953,226044,-118520,-113008,68957,233147,37441
1014356,-115150,-108382,37632,315575,166746,-112938,226022,-118520,-112990,69007,232941,37394
1014357,-115187,-108398,37614,315642,166745,-112936,226007,-118529,-112988,69081,232747,37378
1014358,-115232,-108393,37621,315697,166777,-112988,225954,-118550,-113038,69093,232643,37390
1014359,-115209,-108363,37668,315684,166817,-112987,225933,-118544,-113036,69006,232636,37432
1014360,-115175,-108345,37671,315634,166718,-112977,225968,-118528,-113033,68995,232709,37433
1014361,-115166,-108347,37664,315663,166667,-112972,225945,-118542,-113024,68976,232918,37431
1014362,-115179,-108356,37682,315716,166630,-112966,225968,-118531,-113018,68967,233151,37447
1014363,-115170,-108353,37735,315764,166577,-113002,225999,-118505,-113055,68983,233313,37499
1014364,-115154,-108341,37754,315737,166572,-113050,226079,-118474,-113104,69057,233408,37518
1014365,-115115,-108331,37758,315687,166609,-113034,226079,-118438,-113086,69150,233444,37523
1014366,-115065,-108299,37738,315759,166611,-113006,226072,-118414,-113059,69185,233584,37503
1014367,-115035,-108283,37721,315827,166525,-112916,226123,-118396,-112971,69196,233691,37482
1014368,-115057,-108311,37731,315820,166575,-112833,226158,-118389,-112885,69295,233709,37499
1014369,-115069,-108327,37776,315797,166743,-112816,226117,-118424,-112872,69323,233736,37541
1014370,-115064,-108318,37809,315810,166801,-112804,226042,-118446,-112857,69349,233668,37574
1014371,-115076,-108313,37833,315806,166794,-112854,226054,-118442,-112907,69313,233523,37600
1014372,-115119,-108343,37810,315761,166776,-112922,226064,-118471,-112977,69280,233462,37575
1014373,-115130,-108347,37768,315669,166729,-112958,226028,-118477,-113010,69224,233332,37532
1014374,-115141,-108363,37722,315642,166721,-112950,226022,-118465,-113004,69136,233227,37487
1014375,-115149,-108359,37706,315668,166728,-112964,225951,-118501,-113017,69025,233158,37468
1014376,-115179,-108377,37671,315663,166735,-112962,225847,-118515,-113015,69002,233107,37435
1014377,-115205,-108392,37629,315610,166699,-112946,225852,-118523,-113003,69012,233111,37395
1014378,-115256,-108397,37600,315533,166670,-112931,225825,-118522,-112984,69019,233146,37364
1014379,-115247,-108387,37621,315481,166630,-112891,225941,-118486,-112943,68995,232989,37387
1014380,-115201,-108363,37643,315505,166544,-112872,226033,-118474,-112922,69032,232856,37411
1014381,-115175,-108368,37627,315537,166471,-112853,226070,-118449,-112903,69113,232864,37392
1014382,-115175,-108382,37608,315532,166430,-112817,226109,-118447,-112869,69185,232977,37373
1014383,-115174,-108369,37621,315542,166497,-112819,226133,-118444,-112872,69220,233107,37387
1014384,-115174,-108374,37665,315542,166573,-112840,226115,-118469,-112892,69201,233340,37431
1014385,-115138,-108331,37713,315606,166561,-112855,226116,-118427,-112909,69192,233429,37480
1014386,-115104,-108304,37799,315653,166497,-112841,226106,-118359,-112892,69291,233479,37566
1014387,-115067,-108289,37837,315703,166497,-112828,226074,-118317,-112877,69322,233509,37605
1014388,-115032,-108251,37863,315745,166561,-112800,226084,-118289,-112853,69310,233507,37629
1014389,-115021,-108243,37847,315767,166549,-112770,226098,-118269,-112823,69321,233474,37608
1014390,-115049,-108264,37806,315702,166615,-112754,226133,-118286,-112808,69318,233441,37568
1014391,-115057,-108276,37742,315690,166726,-112778,226151,-118297,-112830,69284,233283,37508
1014392,-115090,-108295,37709,315800,166756,-112826,226175,-118350,-112878,69197,233053,37475
1014393,-115121,-108322,37657,315794,166764,-112867,226147,-118414,-112919,69105,233050,37423
1014394,-115132,-108353,37591,315809,166730,-112909,226103,-118475,-112963,69049,233087,37356
1014395,-115159,-108351,37593,315808,166652,-112947,226060,-118506,-112997,69018,233094,37360
1014396,-115188,-108394,37585,315641,166672,-112929,225977,-118503,-112985,69014,233144,37350
1014397,-115200,-108404,37604,315532,166695,-112943,225947,-118472,-112996,69023,233087,37368
1014398,-115214,-108427,37570,315496,166755,-112922,225897,-118447,-112975,69011,232983,37335
1014399,-115224,-108438,37549,315524,166816,-112933,225845,-118446,-112984,68956,232984,37314
1014400,-115227,-108449,37561,315607,166770,-112963,225899,-118438,-113014,68923,233081,37326
1014401,-115216,-108448,37581,315650,166764,-112958,226020,-118444,-113013,68966,232981,37344
1014402,-115220,-108465,37587,315632,166781,-112920,226069,-118426,-112972,68973,233088,37352
1014403,-115215,-108429,37596,315651,166778,-112917,226131,-118432,-112967,68969,233231,37361
1014404,-115202,-108413,37629,315676,166704,-112882,226196,-118404,-112938,69041,233252,37395
1014405,-115196,-108379,37634,315677,166599,-112828,226248,-118350,-112880,69139,233287,37397
1014406,-115107,-108340,37618,315681,166662,-112807,226272,-118299,-112859,69149,233319,37382
1014407,-115078,-108318,37589,315673,166758,-112804,226269,-118293,-112857,69178,233376,37353
1014408,-115032,-108301,37615,315675,166765,-112792,226320,-118290,-112841,69216,233387,37382
1014409,-115020,-108318,37634,315677,166713,-112788,226320,-118268,-112841,69274,233443,37398
1014410,-115053,-108325,37657,315714,166674,-112785,226278,-118284,-112838,69261,233401,37423
1014411,-115064,-108351,37635,315714,166657,-112802,226261,-118296,-112856,69258,233340,37398
1014412,-115090,-108385,37586,315645,166584,-112902,226267,-118308,-112954,69280,233347,37350
1014413,-115106,-108407,37570,315561,166541,-112981,226233,-118331,-113031,69259,233302,37335
1014414,-115110,-108430,37538,315471,166547,-113005,226199,-118346,-113058,69190,233296,37305
1014415,-115137,-108460,37480,315439,166568,-113033,226153,-118380,-113084,69125,233343,37249
1014416,-115163,-108488,37456,315408,166561,-113031,226079,-118402,-113082,69045,233356,37223
1014417,-115165,-108490,37444,315375,166437,-112957,226069,-118414,-113011,69015,233286,37208
1014418,-115185,-108493,37451,315325,166277,-112882,226060,-118414,-112936,69026,233286,37216
1014419,-115180,-108487,37449,315286,166016,-112828,226083,-118405,-112879,69087,233346,37216
1014420,-115161,-108457,37503,315294,165960,-112818,226115,-118389,-112872,69125,233272,37270
1014421,-115156,-108442,37507,315312,166110,-112851,226149,-118376,-112907,69150,233128,37273
1014422,-115166,-108432,37515,315392,166264,-112863,226157,-118377,-112914,69184,233066,37280
1014423,-115188,-108435,37481,315442,166474,-112866,226136,-118374,-112918,69177,233159,37247
1014424,-115156,-108421,37485,315451,166623,-112822,226175,-118350,-112875,69185,233128,37251
1014425,-115113,-108408,37522,315514,166808,-112792,226213,-118335,-112845,69211,232937,37287
1014426,-115091,-108379,37600,315641,166920,-112789,226227,-118344,-112841,69178,232934,37367
1014427,-115063,-108360,37614,315708,166945,-112795,226262,-118357,-112847,69129,233045,37378
1014428,-115015,-108360,37634,315728,166965,-112783,226277,-118337,-112839,69133,233132,37399
1014429,-114986,-108354,37640,315673,167005,-112795,226302,-118328,-112848,69104,233193,37406
1014430,-115008,-108383,37615,315691,166953,-112846,226296,-118333,-112898,69152,233244,37380
