Timestamp (ms),Ch0 (uV),Ch1 (uV),Ch2 (uV),Ch3 (uV),Ch4 (uV),Ch5 (uV),Ch6 (uV),Ch7 (uV),Ch8 (uV),Ch9 (uV),Ch10 (uV),Ch11 (uV)
1019059,-113935,-108183,36300,312872,164432,-114321,225943,-118560,-114374,66219,231557,36067
1019060,-113930,-108187,36282,312879,164477,-114350,225942,-118545,-114401,66238,231627,36047
1019061,-113898,-108187,36318,312908,164424,-114342,225919,-118528,-114397,66325,231646,36081
1019062,-113850,-108167,36359,312916,164437,-114327,225888,-118518,-114383,66369,231626,36126
1019063,-113822,-108141,36411,312936,164497,-114295,225952,-118509,-114348,66326,231602,36175
1019064,-113797,-108126,36446,312982,164487,-114252,226042,-118501,-114304,66329,231587,36214
1019065,-113774,-108124,36447,312972,164560,-114204,226081,-118489,-114256,66381,231574,36212
1019066,-113769,-108094,36453,312997,164662,-114172,226174,-118480,-114226,66397,231621,36221
1019074,-113849,-108105,36502,313209,164477,-114286,226061,-118532,-114340,66388,231429,36270
1019075,-113862,-108110,36476,313224,164482,-114282,226010,-118542,-114334,66390,231285,36242
1019076,-113908,-108127,36442,313139,164445,-114281,225950,-118550,-114334,66359,231249,36202
1019077,-113931,-108134,36418,313066,164431,-114269,225897,-118571,-114322,66298,231334,36183
1019078,-113933,-108155,36404,313001,164323,-114275,225823,-118604,-114327,66226,231561,36171
1019079,-113902,-108174,36361,312953,164349,-114278,225859,-118602,-114331,66202,231529,36128
1019080,-113894,-108177,36366,312936,164442,-114290,225906,-118588,-114348,66193,231480,36132
1019081,-113891,-108159,36400,313018,164522,-114299,225856,-118581,-114351,66146,231484,36166
1019082,-113899,-108124,36444,313074,164573,-114293,225852,-118571,-114345,66140,231505,36211
1019083,-113886,-108113,36473,313123,164675,-114301,225924,-118576,-114353,66127,231450,36241
1019084,-113872,-108088,36495,313161,164752,-114305,225971,-118576,-114359,66189,231470,36261
1019085,-113850,-108064,36517,313201,164791,-114312,225975,-118568,-114368,66237,231462,36280
1019086,-113784,-108017,36543,313266,164818,-114283,226019,-118529,-114338,66285,231447,36309
1019087,-113754,-107997,36515,313324,164744,-114251,226085,-118500,-114303,66364,231442,36280
1019088,-113725,-107989,36509,313250,164651,-114188,226168,-118466,-114238,66431,231559,36273
1019089,-113708,-107987,36553,313222,164563,-114139,226174,-118449,-114192,66444,231682,36317
1019090,-113706,-107984,36600,313235,164542,-114150,226131,-118444,-114201,66437,231675,36364
1019091,-113726,-108031,36613,313167,164517,-114166,226118,-118469,-114219,66441,231733,36378
1019092,-113750,-108064,36586,313071,164473,-114197,226073,-118495,-114251,66360,231853,36351
1019093,-113763,-108060,36589,313102,164449,-114238,225998,-118516,-114290,66249,231758,36352
1019094,-113811,-108078,36560,313130,164440,-114314,225964,-118511,-114367,66187,231642,36326
1019095,-113852,-108097,36519,313072,164540,-114351,225951,-118531,-114403,66197,231587,36283
1019096,-113887,-108111,36491,313014,164539,-114379,225936,-118541,-114429,66156,231500,36258
1019097,-113917,-108129,36483,312987,164519,-114363,225912,-118556,-114418,66129,231501,36247
1019098,-113950,-108162,36441,312993,164449,-114365,225965,-118569,-114418,66135,231459,36204
1019099,-113952,-108153,36453,313034,164325,-114361,225992,-118611,-114412,66140,231391,36218
1019100,-113929,-108148,36454,313039,164290,-114315,226021,-118623,-114368,66187,231350,36218
1019101,-113901,-108131,36463,312919,164349,-114271,226081,-118609,-114323,66218,231320,36228
1019102,-113865,-108109,36472,312910,164425,-114271,226135,-118575,-114324,66251,231243,36236
1019103,-113815,-108067,36506,313004,164468,-114264,226169,-118560,-114317,66246,231201,36271
1019104,-113821,-108073,36507,313074,164490,-114240,226180,-118517,-114293,66349,231241,36274
1019105,-113831,-108082,36516,313153,164503,-114218,226121,-118491,-114270,66381,231373,36280
1019106,-113825,-108070,36548,313227,164611,-114205,226079,-118481,-114254,66385,231559,36311
1019107,-113837,-108047,36590,313207,164610,-114184,226106,-118442,-114238,66418,231669,36356
1019108,-113828,-108035,36610,313213,164652,-114150,226140,-118420,-114206,66446,231732,36373
1019109,-113829,-108021,36622,313244,164666,-114144,226160,-118431,-114198,66429,231862,36385
1019110,-113840,-108012,36600,313267,164667,-114142,226171,-118442,-114195,66443,231833,36369
1019111,-113837,-108011,36564,313285,164717,-114128,226144,-118461,-114182,66468,231729,36329
1019112,-113824,-108031,36495,313224,164806,-114147,226078,-118480,-114200,66429,231642,36259
1019113,-113832,-108071,36501,313238,164889,-114208,226009,-118529,-114259,66339,231541,36267
1019114,-113876,-108098,36485,313193,164899,-114242,225976,-118536,-114295,66315,231469,36250
1019115,-113904,-108114,36486,313174,164821,-114254,225930,-118545,-114306,66301,231540,36248
1019116,-113920,-108149,36499,313154,164747,-114279,225806,-118564,-114333,66276,231562,36264
1019117,-113932,-108165,36486,313180,164741,-114277,225744,-118576,-114328,66260,231488,36250
1019118,-113960,-108190,36494,313161,164748,-114293,225756,-118584,-114344,66257,231463,36261
1019119,-113968,-108205,36474,313105,164679,-114285,225824,-118594,-114340,66271,231477,36240
1019120,-113950,-108197,36497,313100,164604,-114274,225853,-118570,-114327,66281,231536,36260
1019121,-113936,-108158,36540,313138,164571,-114285,225849,-118572,-114339,66296,231633,36304
1019122,-113906,-108146,36538,313108,164555,-114254,225977,-118564,-114310,66313,231680,36303
1019123,-113868,-108122,36544,313073,164533,-114234,226107,-118535,-114287,66365,231724,36309
1019124,-113837,-108095,36576,313084,164477,-114178,226172,-118488,-114231,66431,231736,36343
1019125,-113782,-108078,36625,313084,164435,-114167,226226,-118474,-114222,66468,231711,36388
1019126,-113715,-108046,36644,313082,164538,-114184,226291,-118436,-114238,66503,231727,36413
1019127,-113682,-108028,36683,313126,164620,-114209,226303,-118409,-114262,66490,231820,36448
1019128,-113657,-107991,36692,313234,164693,-114235,226334,-118369,-114290,66457,231801,36455
1019129,-113630,-107966,36700,313334,164715,-114225,226352,-118344,-114277,66464,231709,36462
1019130,-113678,-107964,36683,313355,164796,-114159,226362,-118343,-114213,66505,231533,36444
1019131,-113729,-107977,36647,313371,164795,-114099,226354,-118362,-114154,66511,231539,36411
1019132,-113768,-108003,36625,313306,164740,-114098,226284,-118409,-114152,66472,231689,36391
1019133,-113775,-108038,36596,313229,164731,-114086,226222,-118458,-114141,66438,231673,36358
1019134,-113806,-108066,36588,313172,164725,-114091,226173,-118482,-114145,66401,231610,36352
1019135,-113791,-108057,36579,313155,164661,-114102,226053,-118474,-114156,66348,231601,36342
1019136,-113805,-108067,36560,313192,164654,-114110,225806,-118489,-114166,66347,231602,36323
1019137,-113803,-108099,36505,313105,164721,-114135,225785,-118506,-114188,66319,231639,36270
1019138,-113847,-108125,36486,312977,164637,-114117,225847,-118479,-114172,66376,231604,36251
1019139,-113838,-108116,36532,313002,164597,-114133,225789,-118471,-114184,66419,231505,36296
1019140,-113827,-108104,36566,313125,164555,-114141,225771,-118467,-114195,66384,231593,36330
1019141,-113788,-108098,36547,313184,164571,-114148,225883,-118470,-114201,66358,231612,36311
1019142,-113797,-108114,36532,313159,164580,-114147,226067,-118452,-114199,66390,231621,36296
1019143,-113804,-108100,36532,313091,164594,-114139,226187,-118437,-114195,66500,231691,36298
1019144,-113778,-108082,36567,313115,164484,-114086,226268,-118396,-114141,66587,231740,36330
1019145,-113753,-108070,36579,313183,164409,-114063,226319,-118379,-114114,66584,231787,36349
1019146,-113731,-108040,36602,313240,164523,-114038,226415,-118368,-114092,66577,231822,36369
1019147,-113701,-108004,36627,313254,164708,-113999,226416,-118349,-114051,66586,231802,36392
1019148,-113660,-107972,36668,313335,164824,-113989,226395,-118361,-114046,66559,231817,36430
1019149,-113624,-107954,36680,313432,164899,-113997,226426,-118352,-114047,66552,231720,36444
1019150,-113609,-107950,36678,313468,164889,-113989,226461,-118325,-114043,66601,231574,36444
1019151,-113609,-107947,36718,313485,164847,-114029,226415,-118318,-114080,66581,231491,36484
1019152,-113641,-107990,36687,313333,164892,-114059,226373,-118352,-114110,66556,231576,36451
1019153,-113706,-108053,36642,313265,164922,-114100,226286,-118385,-114156,66449,231735,36406
1019154,-113752,-108082,36603,313288,164945,-114133,226173,-118436,-114185,66412,231784,36370
1019155,-113791,-108097,36585,313308,164877,-114162,226144,-118471,-114212,66453,231791,36351
1019156,-113837,-108116,36556,313304,164833,-114208,226095,-118512,-114259,66474,231754,36320
1019157,-113821,-108106,36548,313280,164704,-114207,226078,-118512,-114259,66462,231759,36314
1019158,-113819,-108113,36541,313223,164642,-114204,226057,-118536,-114259,66432,231820,36305
1019159,-113863,-108134,36492,313126,164601,-114172,226059,-118532,-114225,66462,231931,36259
1019160,-113851,-108149,36487,313073,164619,-114136,226057,-118494,-114189,66502,231989,36252
1019161,-113804,-108128,36506,313088,164663,-114132,226074,-118461,-114184,66503,231899,36274
1019162,-113744,-108072,36492,313131,164639,-114138,226110,-118395,-114192,66582,231718,36256
1019163,-113663,-108023,36457,313189,164591,-114138,226229,-118344,-114191,66631,231580,36224
1019164,-113632,-107986,36435,313218,164594,-114120,226305,-118341,-114172,66543,231795,36199
1019165,-113626,-107981,36486,313173,164520,-114076,226295,-118338,-114129,66497,232086,36252
1019166,-113607,-107948,36581,313214,164504,-114029,226319,-118314,-114081,66580,232141,36349
1019167,-113599,-107959,36657,313224,164693,-114001,226178,-118326,-114053,66666,232185,36423
1019168,-113573,-107939,36706,313295,164851,-113976,226125,-118326,-114029,66702,232151,36469
1019169,-113573,-107929,36712,313320,164958,-113996,226206,-118319,-114051,66720,232014,36479
1019170,-113572,-107956,36731,313409,165026,-114033,226284,-118337,-114085,66647,231930,36495
1019171,-113626,-107973,36721,313420,165092,-114040,226304,-118367,-114095,66545,231902,36488
1019172,-113661,-107976,36724,313417,165118,-114070,226300,-118382,-114122,66461,231759,36489
1019173,-113682,-107993,36730,313425,165110,-114098,226317,-118454,-114148,66389,231617,36500
1019174,-113722,-107998,36696,313367,165051,-114123,226288,-118514,-114173,66396,231584,36461
1019175,-113754,-108002,36680,313319,165069,-114141,226218,-118538,-114194,66401,231589,36442
1019176,-113797,-108036,36659,313295,165046,-114170,226169,-118543,-114222,66390,231502,36424
1019177,-113810,-108069,36660,313320,164962,-114164,226126,-118539,-114215,66432,231453,36429
1019178,-113818,-108063,36650,313341,164762,-114209,226079,-118545,-114261,66428,231505,36416
1019179,-113823,-108065,36673,313421,164728,-114240,226033,-118555,-114294,66369,231565,36441
1019180,-113827,-108047,36667,313406,164827,-114230,226022,-118531,-114284,66394,231542,36431
1019181,-113787,-108054,36655,313396,164806,-114223,226051,-118500,-114271,66417,231521,36420
1019182,-113732,-108006,36703,313381,164853,-114222,226104,-118492,-114272,66358,231508,36466
1019183,-113689,-107982,36721,313361,164874,-114159,226157,-118457,-114211,66362,231440,36488
1019184,-113673,-107967,36746,313424,164796,-114138,226193,-118452,-114193,66364,231614,36512
1019185,-113685,-107949,36782,313498,164688,-114159,226185,-118470,-114213,66375,231840,36546
1019186,-113703,-107923,36798,313491,164758,-114156,226225,-118457,-114210,66491,231939,36564
1019187,-113666,-107904,36825,313439,164911,-114117,226178,-118435,-114170,66571,231946,36591
1019188,-113602,-107900,36864,313428,165042,-114110,226081,-118408,-114161,66568,232031,36630
1019189,-113575,-107877,36872,313460,165106,-114090,226095,-118401,-114141,66528,231992,36638
1019190,-113557,-107876,36898,313484,165108,-114079,226129,-118393,-114130,66496,231871,36664
1019191,-113564,-107870,36876,313509,165042,-114083,226117,-118405,-114137,66487,231810,36641
1019192,-113621,-107879,36836,313527,164920,-114115,226088,-118436,-114167,66555,231797,36600
1019193,-113677,-107918,36780,313530,164763,-114150,226107,-118492,-114201,66558,231789,36544
1019194,-113710,-107941,36749,313435,164667,-114192,226120,-118518,-114245,66541,231812,36512
1019195,-113707,-107945,36756,313350,164622,-114187,226160,-118506,-114241,66549,231633,36521
1019196,-113688,-107943,36740,313269,164615,-114182,226142,-118479,-114237,66575,231266,36504
1019197,-113702,-107942,36716,313256,164689,-114206,226032,-118505,-114258,66499,231310,36482
1019198,-113759,-107982,36656,313252,164717,-114237,225961,-118565,-114290,66388,231568,36423
1019199,-113756,-107988,36630,313237,164551,-114247,225957,-118567,-114302,66341,231788,36394
1019200,-113753,-107967,36649,313290,164379,-114264,225945,-118544,-114318,66365,231865,36411
1019201,-113739,-107952,36660,313269,164409,-114253,226026,-118526,-114308,66410,231768,36424
1019202,-113722,-107945,36728,313226,164420,-114224,226168,-118508,-114278,66429,231693,36493
1019203,-113707,-107955,36733,313180,164575,-114185,226239,-118498,-114240,66362,231767,36498
1019204,-113691,-107942,36729,313229,164809,-114191,226255,-118531,-114243,66351,231776,36494
1019205,-113695,-107943,36728,313276,165002,-114182,226247,-118526,-114238,66411,231707,36494
1019206,-113680,-107910,36748,313388,165168,-114179,226246,-118525,-114235,66425,231773,36509
1019207,-113647,-107898,36769,313400,165197,-114176,226292,-118515,-114226,66411,231848,36534
1019208,-113617,-107882,36801,313451,165190,-114166,226321,-118495,-114218,66419,231955,36567
1019209,-113645,-107883,36812,313479,165123,-114126,226320,-118472,-114178,66485,232043,36579
1019210,-113645,-107890,36829,313497,165104,-114129,226280,-118473,-114183,66519,232061,36591
1019211,-113637,-107897,36827,313507,165005,-114160,226290,-118458,-114212,66554,231969,36592
1019212,-113648,-107904,36799,313479,164967,-114166,226255,-118454,-114219,66533,231838,36563
1019213,-113662,-107924,36754,313419,164962,-114214,226229,-118461,-114268,66486,231763,36520
1019214,-113679,-107931,36742,313482,164860,-114256,226160,-118495,-114308,66437,231644,36507
1019215,-113681,-107941,36736,313511,164751,-114296,226115,-118506,-114347,66439,231589,36503
1019216,-113727,-107972,36712,313401,164719,-114289,226078,-118546,-114341,66398,231593,36479
1019217,-113747,-107995,36719,313326,164747,-114256,226025,-118582,-114311,66387,231607,36482
1019218,-113779,-107999,36695,313302,164704,-114235,225991,-118608,-114290,66349,231636,36458
1019219,-113796,-108023,36658,313288,164681,-114206,225988,-118614,-114260,66351,231689,36422
1019220,-113781,-108023,36651,313282,164704,-114204,226016,-118610,-114260,66359,231713,36416
1019221,-113741,-107998,36696,313321,164773,-114236,226019,-118586,-114288,66353,231600,36459
1019222,-113694,-107964,36748,313302,164781,-114186,226034,-118524,-114240,66378,231512,36513
1019223,-113654,-107927,36804,313365,164757,-114154,226069,-118464,-114207,66385,231357,36571
1019224,-113639,-107917,36835,313434,164767,-114148,226053,-118451,-114204,66401,231506,36597
1019225,-113638,-107913,36821,313428,164825,-114156,226061,-118451,-114212,66388,231748,36587
1019226,-113623,-107895,36818,313434,164841,-114125,226156,-118428,-114178,66469,231859,36585
1019227,-113604,-107882,36787,313429,164853,-114096,226248,-118402,-114146,66519,231901,36553
1019228,-113576,-107854,36807,313435,164871,-114020,226302,-118377,-114074,66602,231888,36568
1019229,-113544,-107824,36847,313475,164839,-114007,226299,-118396,-114062,66631,231900,36610
1019230,-113534,-107824,36861,313483,164811,-114000,226272,-118415,-114054,66614,231930,36625
1019231,-113536,-107849,36837,313426,164760,-114014,226267,-118398,-114067,66648,231865,36600
1019232,-113555,-107845,36806,313372,164678,-114023,226287,-118388,-114077,66658,231726,36569
1019233,-113562,-107879,36733,313354,164641,-114051,226258,-118412,-114107,66646,231654,36498
1019234,-113605,-107902,36613,313319,164682,-114103,226231,-118443,-114156,66542,231702,36376
1019235,-113658,-107911,36565,313268,164774,-114162,226224,-118469,-114215,66444,231754,36332
1019236,-113730,-107932,36578,313215,164771,-114179,226202,-118493,-114231,66410,231696,36342
1019237,-113770,-107947,36635,313189,164783,-114201,226167,-118505,-114254,66464,231563,36399
1019238,-113794,-107983,36676,313194,164850,-114258,226085,-118551,-114314,66479,231553,36442
1019239,-113790,-107987,36689,313247,164951,-114291,225996,-118575,-114341,66347,231629,36454
1019240,-113777,-107985,36692,313313,164972,-114251,225910,-118559,-114302,66275,231672,36455
1019241,-113759,-107968,36722,313361,164992,-114228,225849,-118526,-114281,66342,231655,36486
1019242,-113705,-107933,36750,313355,164974,-114195,225818,-118499,-114247,66388,231632,36515
1019243,-113630,-107904,36798,313343,164897,-114163,225827,-118459,-114218,66445,231675,36560
1019244,-113592,-107899,36779,313311,164876,-114107,225899,-118422,-114159,66489,231779,36544
1019245,-113562,-107915,36771,313286,164869,-114086,226054,-118414,-114141,66492,231868,36535
1019246,-113561,-107892,36793,313312,164901,-114046,226169,-118377,-114099,66564,231930,36558
1019247,-113574,-107874,36792,313353,164933,-114015,226272,-118348,-114066,66611,231934,36557
1019248,-113593,-107873,36772,313459,164917,-114000,226413,-118333,-114052,66627,231966,36538
1019249,-113564,-107871,36778,313552,164869,-114008,226445,-118316,-114060,66635,232014,36543
1019250,-113559,-107868,36748,313521,164883,-113998,226416,-118310,-114055,66658,232060,36513
1019251,-113560,-107873,36731,313420,164904,-114024,226426,-118332,-114080,66654,232060,36497
1019252,-113575,-107885,36732,313408,164824,-114042,226399,-118359,-114096,66617,232042,36499
1019253,-113585,-107874,36721,313403,164693,-114061,226346,-118361,-114116,66586,231938,36488
1019254,-113584,-107870,36713,313349,164580,-114079,226337,-118381,-114132,66573,231840,36478
1019255,-113570,-107876,36726,313239,164396,-114048,226357,-118368,-114102,66601,231807,36491
1019256,-113602,-107919,36671,313142,164443,-114035,226305,-118354,-114086,66608,231738,36436
1019257,-113641,-107951,36677,313136,164628,-114073,226194,-118380,-114128,66530,231751,36444
1019258,-113655,-107964,36666,313198,164760,-114107,226105,-118399,-114158,66441,231726,36433
1019259,-113650,-107973,36671,313251,164743,-114098,226121,-118384,-114150,66438,231615,36438
1019260,-113644,-107968,36666,313236,164716,-114088,226220,-118344,-114142,66517,231590,36431
1019261,-113650,-107949,36677,313285,164777,-114126,226293,-118318,-114181,66558,231596,36439
1019262,-113622,-107916,36705,313416,164930,-114141,226359,-118333,-114194,66515,231558,36470
1019263,-113571,-107878,36728,313506,165076,-114091,226327,-118333,-114146,66519,231607,36491
1019264,-113523,-107854,36769,313551,165154,-114040,226271,-118333,-114095,66564,231767,36534
1019265,-113531,-107831,36768,313580,165225,-113997,226303,-118350,-114051,66623,231889,36534
1019266,-113478,-107820,36758,313581,165218,-113915,226402,-118317,-113967,66639,232077,36522
1019267,-113443,-107805,36786,313609,165231,-113863,226461,-118307,-113914,66646,232155,36550
1019268,-113428,-107773,36845,313637,165210,-113849,226526,-118280,-113903,66702,232180,36607
1019269,-113436,-107758,36882,313605,165228,-113843,226569,-118249,-113897,66751,232183,36649
1019270,-113438,-107752,36929,313624,165199,-113849,226590,-118227,-113903,66800,232051,36693
1019271,-113427,-107753,36962,313656,165091,-113873,226556,-118242,-113927,66798,232020,36726
1019272,-113456,-107780,36909,313587,165054,-113911,226509,-118277,-113964,66759,232102,36674
1019273,-113487,-107802,36860,313504,165035,-113940,226459,-118309,-113992,66754,232105,36627
1019274,-113526,-107810,36821,313462,164961,-113959,226432,-118346,-114011,66736,232034,36587
1019275,-113530,-107828,36788,313419,164890,-113946,226405,-118355,-114001,66701,231967,36554
1019276,-113570,-107834,36778,313357,164857,-113961,226362,-118362,-114014,66644,231893,36539
1019277,-113582,-107845,36837,313265,164850,-113975,226320,-118368,-114030,66618,231820,36602
1019278,-113599,-107823,36867,313178,164769,-113996,226250,-118374,-114050,66630,231767,36631
1019279,-113558,-107810,36888,313135,164654,-113966,226184,-118355,-114019,66651,231727,36653
1019280,-113546,-107783,36888,313285,164544,-113973,226169,-118334,-114027,66663,231657,36649
1019281,-113564,-107805,36834,313378,164608,-113973,226203,-118327,-114027,66668,231713,36601
1019282,-113559,-107803,36830,313423,164645,-113978,226196,-118312,-114029,66718,231748,36594
1019283,-113550,-107793,36850,313405,164706,-113949,226232,-118292,-114001,66747,231751,36615
1019284,-113548,-107792,36881,313395,164864,-113973,226309,-118296,-114022,66697,231868,36646
1019285,-113528,-107799,36898,313512,165038,-114017,226259,-118339,-114071,66607,231939,36664
1019286,-113524,-107779,36910,313646,165179,-113998,226257,-118335,-114051,66627,232013,36674
1019287,-113514,-107766,36869,313677,165186,-113986,226352,-118323,-114039,66657,232057,36637
1019288,-113497,-107721,36901,313728,165174,-113954,226418,-118302,-114006,66668,232050,36667
1019289,-113483,-107697,36951,313713,165211,-113973,226377,-118297,-114023,66710,232012,36721
1019290,-113499,-107686,36981,313698,165290,-113979,226288,-118302,-114033,66734,232007,36746
1019291,-113493,-107675,37001,313747,165278,-114014,226257,-118334,-114068,66688,231903,36765
1019292,-113515,-107701,37008,313757,165249,-114039,226196,-118358,-114092,66633,231792,36774
1019293,-113516,-107738,36965,313741,165227,-114070,226112,-118386,-114125,66565,231745,36728
1019294,-113564,-107756,36954,313717,165081,-114103,226147,-118419,-114155,66506,231722,36721
1019295,-113608,-107782,36916,313631,164943,-114111,226187,-118415,-114168,66492,231786,36680
1019296,-113598,-107821,36864,313541,164915,-114111,226141,-118430,-114164,66472,231751,36628
1019297,-113604,-107834,36866,313499,164889,-114121,226092,-118456,-114172,66457,231740,36631
1019298,-113602,-107819,36860,313430,164798,-114114,226100,-118446,-114168,66438,231674,36624
1019299,-113606,-107808,36866,313362,164762,-114097,226189,-118423,-114151,66399,231546,36631
1019300,-113619,-107793,36863,313336,164758,-114120,226212,-118401,-114173,66449,231530,36631
1019301,-113635,-107809,36849,313288,164856,-114101,226211,-118407,-114151,66475,231617,36615
1019302,-113657,-107815,36844,313337,164884,-114103,226234,-118438,-114156,66454,231813,36609
1019303,-113629,-107799,36856,313391,164864,-114066,226249,-118428,-114121,66504,231800,36622
1019304,-113591,-107780,36872,313427,164830,-114009,226282,-118393,-114064,66598,231769,36638
1019305,-113545,-107797,36878,313448,164801,-113984,226302,-118378,-114039,66645,231803,36641
1019306,-113536,-107779,36915,313493,164861,-113993,226325,-118376,-114048,66643,232030,36680
1019307,-113501,-107736,36963,313500,164861,-113987,226324,-118348,-114041,66656,232117,36727
1019308,-113469,-107728,36969,313499,164889,-113972,226346,-118331,-114027,66726,232149,36733
1019309,-113442,-107715,36938,313465,164968,-113947,226348,-118306,-114000,66750,232144,36705
1019310,-113423,-107726,36918,313424,164932,-113981,226345,-118322,-114037,66738,232197,36684
1019311,-113449,-107744,36917,313434,164879,-113996,226331,-118334,-114052,66732,232213,36683
1019312,-113485,-107769,36889,313410,164758,-114012,226351,-118357,-114068,66710,232136,36656
1019313,-113527,-107785,36815,313289,164824,-114021,226392,-118357,-114071,66662,231921,36581
1019314,-113570,-107815,36755,313334,164915,-114063,226353,-118396,-114116,66599,231753,36521
1019315,-113619,-107837,36734,313398,164971,-114094,226311,-118427,-114147,66520,231704,36499
1019316,-113649,-107839,36751,313415,164917,-114170,226291,-118461,-114223,66391,231637,36517
1019317,-113669,-107848,36827,313383,164872,-114205,226238,-118449,-114260,66333,231622,36594
1019318,-113692,-107870,36883,313334,164816,-114200,226161,-118439,-114254,66359,231546,36652
1019319,-113708,-107896,36853,313337,164822,-114209,226100,-118460,-114263,66422,231555,36619
1019320,-113741,-107918,36801,313366,164879,-114205,226083,-118467,-114259,66481,231566,36566
1019321,-113756,-107901,36756,313376,164946,-114182,226130,-118463,-114232,66468,231623,36524
1019322,-113737,-107885,36779,313402,164900,-114133,226116,-118452,-114187,66469,231704,36544
1019323,-113700,-107871,36827,313451,164797,-114085,226060,-118440,-114136,66534,231802,36596
1019324,-113707,-107868,36852,313477,164834,-114052,226032,-118422,-114102,66611,231903,36621
1019325,-113733,-107829,36877,313440,164845,-113995,226095,-118405,-114046,66661,231909,36641
1019326,-113675,-107792,36928,313420,164669,-113939,226194,-118345,-113991,66725,231980,36694
1019327,-113626,-107777,36965,313420,164651,-113914,226307,-118332,-113967,66776,231956,36731
1019328,-113583,-107782,36929,313423,164800,-113931,226362,-118329,-113983,66770,231979,36695
1019329,-113549,-107769,36890,313421,164908,-113945,226398,-118325,-113998,66772,231961,36657
1019330,-113508,-107781,36886,313425,164951,-113955,226421,-118321,-114004,66792,231770,36654
1019331,-113485,-107799,36850,313462,165044,-113974,226413,-118342,-114024,66682,231658,36617
1019332,-113502,-107826,36841,313563,165051,-114051,226356,-118384,-114106,66531,231629,36605
1019333,-113518,-107834,36849,313628,165010,-114117,226274,-118395,-114173,66468,231490,36615
1019334,-113571,-107868,36822,313535,164871,-114145,226240,-118396,-114198,66463,231489,36589
1019335,-113613,-107911,36747,313410,164862,-114182,226268,-118414,-114237,66407,231670,36510
1019336,-113661,-107962,36653,313313,164837,-114164,226259,-118436,-114218,66394,231674,36418
1019337,-113698,-107972,36574,313263,164777,-114148,226203,-118443,-114201,66427,231702,36340
1019338,-113729,-107976,36550,313302,164760,-114173,226155,-118498,-114224,66415,231645,36317
1019339,-113726,-107972,36537,313361,164859,-114178,226113,-118525,-114231,66356,231570,36301
1019340,-113735,-107965,36548,313361,164898,-114166,226081,-118536,-114221,66297,231674,36315
1019341,-113710,-107945,36588,313338,164868,-114107,226024,-118508,-114163,66330,231716,36354
1019342,-113708,-107958,36618,313324,164858,-114042,225989,-118484,-114096,66449,231719,36384
1019343,-113719,-107952,36630,313311,164935,-114029,226054,-118429,-114079,66537,231702,36394
1019344,-113729,-107947,36659,313341,164946,-114018,226137,-118413,-114070,66568,231781,36424
1019345,-113703,-107937,36674,313389,164831,-114013,226172,-118391,-114067,66593,231885,36435
1019346,-113640,-107898,36727,313447,164720,-113983,226175,-118333,-114036,66642,231965,36489
1019347,-113594,-107877,36692,313390,164799,-113961,226215,-118330,-114018,66657,232039,36455
1019348,-113573,-107873,36675,313425,164833,-113955,226282,-118330,-114009,66709,232067,36439
1019349,-113555,-107867,36656,313519,164817,-113939,226284,-118326,-113992,66756,232072,36419
1019350,-113548,-107869,36700,313592,164773,-113967,226267,-118338,-114022,66713,232054,36464
1019351,-113564,-107891,36702,313513,164823,-113973,226294,-118349,-114027,66680,232055,36469
1019352,-113611,-107907,36721,313444,164827,-114014,226317,-118389,-114068,66635,231990,36487
1019353,-113658,-107919,36724,313388,164837,-114023,226262,-118409,-114076,66579,231900,36489
1019354,-113723,-107963,36697,313293,164899,-114070,226193,-118426,-114120,66568,231835,36467
1019355,-113742,-107975,36672,313190,164915,-114094,226185,-118442,-114142,66565,231805,36438
1019356,-113776,-108005,36622,313147,164905,-114101,226151,-118458,-114158,66539,231722,36386
1019357,-113795,-107995,36603,313190,164855,-114116,226146,-118456,-114166,66552,231587,36368
1019358,-113797,-108000,36565,313264,164772,-114126,226113,-118466,-114179,66552,231487,36329
1019359,-113785,-107975,36531,313302,164747,-114140,226118,-118487,-114192,66521,231407,36295
1019360,-113778,-107973,36537,313311,164783,-114109,226148,-118471,-114160,66565,231295,36303
1019361,-113776,-107981,36560,313288,164802,-114070,226103,-118438,-114125,66584,231403,36324
1019362,-113762,-108000,36590,313259,164824,-114066,226043,-118458,-114117,66534,231742,36356
1019363,-113717,-107997,36659,313355,164757,-114058,226036,-118447,-114113,66519,231869,36422
1019364,-113701,-107983,36698,313403,164732,-114037,226086,-118433,-114093,66580,231884,36463
1019365,-113691,-107964,36678,313369,164779,-114009,226106,-118424,-114060,66635,231943,36444
1019366,-113641,-107947,36658,313339,164907,-113998,226167,-118406,-114051,66666,232046,36424
1019367,-113591,-107911,36672,313419,164999,-114029,226206,-118402,-114080,66677,231986,36439
1019368,-113559,-107879,36681,313472,165099,-114045,226296,-118387,-114097,66699,231938,36446
1019369,-113580,-107869,36690,313473,165061,-114046,226361,-118388,-114098,66706,232024,36457
1019370,-113544,-107871,36689,313529,165037,-114060,226398,-118402,-114114,66638,231982,36454
1019371,-113509,-107857,36719,313603,164975,-114055,226358,-118423,-114111,66618,231820,36487
1019372,-113533,-107870,36734,313608,164881,-114066,226343,-118436,-114120,66613,231627,36496
1019373,-113590,-107929,36702,313544,164890,-114086,226286,-118479,-114139,66553,231705,36466
1019374,-113679,-107950,36663,313428,164981,-114111,226215,-118522,-114167,66464,231777,36430
1019375,-113683,-107957,36635,313383,164983,-114141,226212,-118535,-114195,66430,231733,36401
1019376,-113683,-107955,36568,313379,164905,-114142,226108,-118539,-114195,66463,231606,36334
1019377,-113710,-107962,36537,313339,164842,-114108,226010,-118532,-114164,66496,231622,36304
1019378,-113744,-107964,36510,313276,164836,-114116,225993,-118533,-114168,66377,231681,36278
1019379,-113763,-107984,36510,313249,164856,-114167,226008,-118564,-114220,66304,231786,36278
1019380,-113762,-107973,36574,313273,164839,-114172,226050,-118548,-114228,66335,231763,36339
1019381,-113755,-107966,36607,313248,164789,-114210,226125,-118518,-114262,66362,231753,36374
1019382,-113739,-107940,36629,313236,164610,-114215,226172,-118483,-114265,66432,231913,36398
1019383,-113736,-107904,36646,313299,164500,-114192,226202,-118460,-114248,66472,231956,36405
1019384,-113714,-107898,36643,313320,164653,-114172,226253,-118439,-114227,66512,231938,36405
1019385,-113706,-107892,36655,313367,164838,-114149,226244,-118470,-114204,66457,231927,36423
1019386,-113649,-107860,36697,313476,164961,-114091,226240,-118458,-114143,66438,231844,36464
1019387,-113624,-107836,36748,313549,165045,-114054,226219,-118427,-114107,66500,231749,36516
1019388,-113606,-107824,36791,313601,165091,-114043,226191,-118404,-114092,66580,231796,36557
1019389,-113642,-107803,36803,313662,165085,-114039,226201,-118420,-114092,66560,231899,36567
1019390,-113655,-107811,36789,313680,165117,-114055,226276,-118440,-114108,66531,231862,36554
1019391,-113626,-107817,36775,313628,165073,-114078,226330,-118455,-114130,66555,231722,36544
1019392,-113652,-107835,36774,313561,164949,-114113,226358,-118485,-114167,66557,231627,36541
1019393,-113670,-107850,36769,313518,164883,-114151,226303,-118495,-114207,66521,231570,36535
1019394,-113697,-107876,36735,313451,164811,-114187,226247,-118520,-114241,66449,231564,36501
1019395,-113702,-107907,36698,313359,164783,-114164,226222,-118528,-114216,66424,231537,36464
1019396,-113726,-107921,36671,313324,164734,-114201,226128,-118578,-114256,66419,231608,36439
1019397,-113750,-107951,36666,313319,164646,-114195,226051,-118592,-114250,66407,231701,36434
1019398,-113747,-107949,36646,313267,164559,-114169,226003,-118569,-114222,66419,231581,36413
1019399,-113760,-107935,36625,313234,164566,-114160,225968,-118561,-114212,66425,231531,36393
1019400,-113803,-107933,36599,313246,164619,-114162,226001,-118538,-114213,66428,231511,36364
1019401,-113784,-107940,36586,313277,164681,-114173,225980,-118533,-114228,66466,231530,36353
1019402,-113769,-107928,36628,313268,164716,-114141,225904,-118512,-114192,66489,231635,36394
1019403,-113700,-107896,36718,313276,164638,-114135,225799,-118497,-114186,66488,231717,36484
1019404,-113673,-107877,36798,313369,164477,-114102,225828,-118474,-114154,66471,231877,36563
1019405,-113725,-107890,36804,313367,164535,-114078,225977,-118465,-114130,66483,231883,36572
1019406,-113735,-107875,36809,313326,164760,-114078,226109,-118427,-114130,66531,231878,36574
1019407,-113719,-107868,36756,313404,164920,-114098,226178,-118443,-114153,66554,231891,36523
1019408,-113672,-107860,36717,313446,165063,-114083,226255,-118454,-114138,66582,231778,36481
1019409,-113632,-107851,36684,313468,165112,-114089,226324,-118488,-114143,66592,231770,36451
1019410,-113634,-107848,36649,313456,165098,-114101,226319,-118514,-114152,66536,231927,36415
1019411,-113645,-107870,36641,313432,165053,-114128,226324,-118541,-114178,66537,231887,36410
1019412,-113673,-107901,36655,313377,165020,-114157,226307,-118547,-114209,66499,231800,36423
1019413,-113692,-107921,36687,313317,165030,-114182,226250,-118567,-114237,66439,231680,36453
1019414,-113732,-107924,36727,313268,164970,-114181,226204,-118589,-114234,66406,231530,36492
1019415,-113762,-107918,36743,313279,164871,-114222,226169,-118574,-114277,66339,231511,36509
1019416,-113811,-107948,36687,313275,164694,-114218,226130,-118585,-114271,66308,231541,36452
1019417,-113816,-107952,36650,313260,164611,-114233,226128,-118564,-114284,66276,231500,36414
1019418,-113817,-107930,36641,313242,164533,-114241,226143,-118560,-114294,66278,231300,36409
1019419,-113805,-107908,36677,313236,164483,-114248,226125,-118569,-114305,66246,231217,36442
1019420,-113805,-107917,36680,313172,164561,-114283,226084,-118610,-114336,66221,231448,36445
1019421,-113853,-107938,36684,313149,164724,-114306,226038,-118619,-114358,66243,231595,36450
1019422,-113863,-107938,36683,313134,164777,-114269,226053,-118578,-114322,66247,231666,36447
1019423,-113857,-107944,36681,313169,164809,-114259,226086,-118564,-114309,66319,231737,36447
1019424,-113850,-107927,36696,313254,164869,-114238,226078,-118557,-114291,66379,231766,36461
1019425,-113829,-107904,36707,313301,164949,-114220,226068,-118573,-114272,66368,231807,36470
1019426,-113762,-107879,36699,313330,164978,-114193,226131,-118560,-114246,66376,231839,36463
1019427,-113732,-107877,36721,313377,164921,-114203,226182,-118537,-114256,66422,231958,36487
1019428,-113693,-107874,36733,313445,164791,-114182,226246,-118503,-114236,66473,232044,36499
1019429,-113677,-107876,36734,313457,164684,-114129,226299,-118477,-114184,66517,232057,36500
1019430,-113669,-107874,36709,313435,164665,-114097,226338,-118461,-114148,66519,232000,36475
1019431,-113687,-107884,36680,313378,164672,-114049,226340,-118460,-114097,66564,231912,36447
1019432,-113718,-107895,36653,313382,164674,-114041,226222,-118497,-114092,66553,231830,36418
1019433,-113738,-107924,36625,313385,164648,-114069,226078,-118572,-114120,66530,231809,36394
1019434,-113775,-107949,36612,313314,164652,-114114,226027,-118595,-114166,66483,231758,36380
1019435,-113792,-107949,36637,313280,164622,-114145,226008,-118632,-114198,66471,231649,36402
1019436,-113825,-107967,36630,313227,164591,-114144,225956,-118641,-114196,66438,231559,36394
1019437,-113829,-107979,36604,313237,164641,-114164,225918,-118652,-114218,66389,231426,36368
1019438,-113826,-107993,36601,313254,164737,-114187,225864,-118656,-114240,66335,231214,36368
1019439,-113847,-108005,36609,313288,164814,-114203,225847,-118638,-114256,66313,231093,36376
1019440,-113839,-108012,36594,313271,164844,-114238,225926,-118650,-114293,66298,231139,36363
1019441,-113847,-108013,36563,313265,164856,-114247,225981,-118634,-114302,66234,231321,36329
1019442,-113856,-108000,36525,313261,164805,-114243,226058,-118579,-114294,66269,231475,36293
1019443,-113831,-107992,36485,313287,164732,-114221,226075,-118521,-114277,66306,231605,36251
1019444,-113801,-107967,36484,313319,164741,-114237,226079,-118471,-114289,66363,231679,36250
1019445,-113787,-107981,36517,313300,164765,-114231,226070,-118445,-114285,66411,231773,36284
1019446,-113805,-107978,36560,313281,164758,-114145,226112,-118428,-114200,66465,231956,36325
1019447,-113812,-107953,36602,313237,164654,-114102,226177,-118410,-114153,66549,232102,36367
1019448,-113812,-107942,36617,313227,164670,-114042,226241,-118395,-114097,66627,232126,36382
1019449,-113767,-107904,36620,313278,164637,-114021,226243,-118382,-114074,66661,232066,36386
1019450,-113730,-107880,36665,313393,164574,-114021,226166,-118364,-114073,66612,231965,36430
1019451,-113711,-107872,36662,313422,164560,-114015,226152,-118373,-114069,66585,231823,36427
1019452,-113714,-107900,36631,313355,164625,-114011,226196,-118390,-114065,66523,231611,36394
1019453,-113738,-107942,36582,313243,164703,-114027,226217,-118454,-114080,66462,231488,36346
1019454,-113757,-107973,36578,313192,164732,-114089,226166,-118471,-114144,66355,231462,36340
1019455,-113758,-107986,36577,313227,164790,-114156,226073,-118513,-114207,66264,231450,36344
1019456,-113809,-107997,36593,313229,164852,-114196,226013,-118561,-114248,66201,231325,36359
1019457,-113866,-108040,36561,313197,164784,-114199,225986,-118569,-114254,66239,231429,36327
1019458,-113921,-108087,36538,313216,164672,-114249,225930,-118588,-114303,66238,231642,36301
1019459,-113938,-108109,36523,313164,164585,-114295,225899,-118580,-114346,66266,231782,36287
1019460,-113917,-108073,36525,313184,164389,-114301,225958,-118530,-114354,66299,231806,36291
1019461,-113902,-108068,36515,313088,164386,-114260,226060,-118500,-114314,66369,231779,36281
1019462,-113902,-108059,36529,313017,164490,-114250,226150,-118486,-114301,66430,231742,36295
1019463,-113870,-108041,36528,313041,164626,-114195,226159,-118475,-114247,66390,231743,36293
1019464,-113829,-108017,36541,313211,164732,-114170,226146,-118473,-114225,66362,231702,36302
1019465,-113815,-108003,36502,313293,164746,-114089,226185,-118460,-114142,66429,231653,36264
1019466,-113753,-107957,36479,313313,164740,-114046,226276,-118413,-114099,66503,231606,36243
1019467,-113717,-107930,36431,313299,164681,-114002,226338,-118381,-114055,66587,231716,36194
1019468,-113700,-107955,36407,313315,164749,-113964,226353,-118377,-114017,66648,231791,36174
1019469,-113680,-107964,36453,313444,164918,-113985,226327,-118394,-114039,66659,231676,36218
1019470,-113697,-108001,36510,313442,165045,-114018,226265,-118415,-114073,66638,231688,36274
1019471,-113689,-108016,36545,313395,165112,-114024,226196,-118432,-114077,66571,231673,36306
1019472,-113697,-108035,36546,313355,165067,-114085,226182,-118445,-114140,66514,231630,36313
1019473,-113759,-108073,36543,313380,165021,-114162,226134,-118492,-114212,66447,231696,36306
1019474,-113802,-108094,36495,313310,164968,-114231,226054,-118526,-114285,66382,231794,36262
1019475,-113838,-108093,36484,313299,164937,-114239,226008,-118526,-114296,66410,231722,36250
1019476,-113896,-108129,36434,313206,164843,-114238,226006,-118520,-114294,66440,231698,36201
1019477,-113911,-108124,36413,313169,164780,-114248,225977,-118526,-114304,66350,231750,36177
1019478,-113905,-108141,36379,313135,164710,-114210,225883,-118538,-114264,66301,231763,36142
1019479,-113908,-108143,36373,313128,164645,-114153,225815,-118517,-114208,66322,231722,36137
1019480,-113915,-108136,36373,313138,164634,-114150,225861,-118531,-114203,66356,231731,36137
1019481,-113915,-108136,36377,313150,164642,-114148,225991,-118540,-114203,66378,231701,36144
1019482,-113926,-108136,36368,313131,164706,-114128,226026,-118509,-114184,66437,231713,36131
1019483,-113899,-108124,36386,313153,164757,-114119,226066,-118511,-114173,66483,231745,36149
1019484,-113833,-108094,36389,313183,164743,-114094,226132,-118492,-114147,66506,231765,36154
1019485,-113784,-108068,36426,313240,164715,-114071,226143,-118449,-114127,66533,231723,36190
1019486,-113745,-108025,36488,313309,164828,-114077,226187,-118430,-114132,66514,231672,36253
1019487,-113726,-108011,36543,313352,164894,-114080,226257,-118435,-114136,66488,231705,36305
1019488,-113710,-107985,36580,313350,164926,-114076,226308,-118429,-114131,66526,231769,36347
1019489,-113682,-107975,36599,313366,164903,-114074,226327,-118417,-114127,66556,231762,36366
1019490,-113678,-107985,36569,313356,164940,-114063,226345,-118426,-114114,66496,231755,36336
1019491,-113713,-107979,36571,313327,164960,-114078,226308,-118457,-114132,66427,231808,36333
1019492,-113797,-108002,36557,313289,165005,-114102,226281,-118484,-114153,66388,231773,36322
1019493,-113847,-108004,36565,313308,164906,-114183,226218,-118531,-114239,66379,231715,36327
1019494,-113880,-108026,36568,313263,164813,-114224,226146,-118530,-114278,66370,231722,36331
1019495,-113857,-108037,36557,313251,164763,-114245,226097,-118527,-114297,66385,231611,36324
1019496,-113874,-108064,36499,313239,164663,-114215,226054,-118523,-114266,66369,231506,36265
1019497,-113876,-108073,36435,313320,164642,-114216,225998,-118559,-114269,66265,231507,36202
1019498,-113911,-108099,36429,313319,164756,-114238,225863,-118613,-114289,66168,231634,36196
1019499,-113926,-108118,36433,313268,164784,-114217,225825,-118621,-114270,66159,231695,36197
1019500,-113940,-108104,36448,313123,164684,-114166,225831,-118574,-114222,66252,231729,36215
1019501,-113932,-108091,36485,313031,164577,-114103,225893,-118544,-114157,66321,231781,36250
1019502,-113886,-108085,36537,313055,164581,-114084,225937,-118526,-114139,66360,231798,36301
1019503,-113866,-108068,36576,313168,164687,-114111,225937,-118530,-114160,66384,231765,36346
1019504,-113840,-108053,36606,313319,164778,-114131,225999,-118545,-114187,66404,231700,36373
1019505,-113837,-108032,36607,313401,164817,-114139,226041,-118530,-114192,66450,231660,36376
1019506,-113827,-108025,36640,313460,164815,-114101,226100,-118482,-114153,66523,231719,36406
1019507,-113778,-108016,36638,313466,164859,-114112,226148,-118491,-114163,66528,231832,36405
1019508,-113732,-107984,36675,313487,164913,-114083,226133,-118476,-114137,66529,231866,36442
1019509,-113686,-107990,36689,313475,164966,-114067,226102,-118448,-114120,66553,231874,36456
1019510,-113700,-108017,36693,313500,164985,-114084,226104,-118439,-114138,66569,231879,36457
1019511,-113701,-108013,36674,313373,164882,-114116,226206,-118432,-114167,66565,231917,36441
1019512,-113739,-108011,36653,313306,164799,-114141,226207,-118427,-114197,66540,231885,36416
1019513,-113772,-108020,36642,313307,164693,-114176,226150,-118464,-114230,66506,231847,36407
1019514,-113788,-108038,36611,313267,164671,-114185,226112,-118515,-114238,66435,231781,36374
1019515,-113809,-108044,36569,313248,164686,-114135,226087,-118533,-114190,66331,231735,36333
1019516,-113868,-108072,36536,313200,164763,-114123,225963,-118575,-114176,66275,231744,36301
1019517,-113878,-108075,36510,313164,164857,-114139,225844,-118576,-114191,66320,231637,36274
1019518,-113888,-108085,36537,313147,164850,-114132,225783,-118588,-114185,66355,231481,36301
1019519,-113931,-108100,36538,313023,164797,-114079,225827,-118545,-114132,66376,231477,36305
1019520,-113937,-108087,36558,313037,164749,-114048,225851,-118510,-114099,66355,231522,36323
1019521,-113912,-108076,36568,313122,164726,-114033,225866,-118488,-114086,66370,231485,36332
1019522,-113894,-108067,36545,313187,164762,-114037,225993,-118488,-114086,66443,231362,36310
1019523,-113894,-108062,36532,313257,164808,-114039,226098,-118500,-114091,66494,231395,36296
1019524,-113863,-108037,36584,313369,164896,-114061,226121,-118519,-114114,66417,231516,36350
1019525,-113853,-108044,36621,313448,164936,-114052,226122,-118531,-114105,66342,231652,36386
1019526,-113798,-108033,36675,313476,164913,-114034,226203,-118503,-114086,66405,231730,36441
1019527,-113770,-108009,36713,313487,165023,-114054,226256,-118478,-114104,66448,231701,36481
1019528,-113734,-107995,36737,313556,165113,-114044,226273,-118443,-114097,66503,231700,36503
1019529,-113750,-107992,36744,313607,165114,-114041,226224,-118420,-114096,66531,231784,36509
1019530,-113765,-107988,36729,313616,165088,-114059,226249,-118440,-114113,66521,231868,36494
1019531,-113769,-107985,36724,313674,165050,-114082,226225,-118456,-114133,66474,231855,36491
1019532,-113812,-107995,36700,313664,164948,-114055,226173,-118465,-114109,66441,231865,36464
1019533,-113860,-108034,36649,313585,164898,-114067,226095,-118513,-114124,66447,231931,36414
1019534,-113886,-108041,36609,313483,164840,-114076,226036,-118535,-114130,66466,231886,36375
1019535,-113916,-108079,36584,313405,164800,-114071,226038,-118510,-114126,66484,231865,36348
1019536,-113942,-108084,36584,313341,164782,-114116,225999,-118548,-114172,66443,231845,36351
1019537,-113893,-108087,36583,313227,164815,-114145,225996,-118558,-114199,66359,231822,36346
1019538,-113840,-108073,36561,313197,164788,-114144,225927,-118548,-114198,66331,231695,36327
1019539,-113872,-108066,36580,313239,164785,-114149,225834,-118579,-114200,66304,231733,36345
1019540,-113936,-108062,36576,313266,164788,-114175,225887,-118581,-114228,66255,231843,36340
1019541,-113961,-108054,36581,313288,164848,-114175,225958,-118590,-114229,66259,231902,36344
1019542,-113914,-108041,36566,313307,164724,-114123,226030,-118542,-114174,66322,231882,36332
1019543,-113824,-108006,36590,313385,164576,-114119,226113,-118524,-114172,66390,231846,36357
1019544,-113756,-108005,36646,313378,164637,-114102,226147,-118492,-114156,66461,231803,36407
1019545,-113697,-108032,36670,313300,164876,-114098,226112,-118478,-114151,66511,231774,36436
1019546,-113663,-108001,36732,313344,164946,-114108,226126,-118411,-114163,66598,231728,36497
1019547,-113623,-107977,36741,313382,165010,-114105,226182,-118353,-114157,66633,231680,36507
1019548,-113607,-107947,36776,313461,165098,-114167,226251,-118372,-114219,66633,231748,36538
1019549,-113605,-107937,36755,313443,165125,-114145,226291,-118350,-114197,66648,231795,36523
1019550,-113608,-107941,36753,313412,165050,-114070,226308,-118343,-114125,66631,231800,36517
1019551,-113619,-107939,36733,313420,164992,-114024,226299,-118366,-114079,66571,231777,36500
1019552,-113676,-107973,36715,313395,164976,-114020,226262,-118420,-114074,66545,231831,36481
1019553,-113731,-108007,36672,313354,164974,-114061,226188,-118488,-114111,66488,231931,36438
1019554,-113793,-108031,36621,313376,164937,-114094,226173,-118539,-114146,66468,231894,36384
1019555,-113798,-108029,36588,313376,164916,-114093,226146,-118529,-114148,66417,231823,36354
1019556,-113831,-108058,36551,313410,164856,-114079,226101,-118518,-114132,66372,231704,36319
1019557,-113872,-108051,36506,313454,164751,-114061,226072,-118510,-114112,66338,231642,36271
1019558,-113871,-108069,36492,313389,164724,-114053,226069,-118526,-114108,66331,231562,36257
1019559,-113868,-108057,36528,313268,164670,-114061,226072,-118518,-114114,66310,231615,36293
1019560,-113838,-108060,36566,313134,164665,-114064,226058,-118510,-114117,66317,231741,36330
1019561,-113845,-108046,36578,313102,164737,-114085,226079,-118498,-114138,66337,231823,36343
1019562,-113850,-108043,36559,313134,164755,-114079,226102,-118479,-114132,66423,231852,36321
1019563,-113822,-108042,36547,313216,164777,-114034,226125,-118444,-114086,66496,231821,36311
1019564,-113771,-108006,36602,313315,164821,-114017,226171,-118421,-114072,66530,231670,36368
1019565,-113730,-108000,36655,313336,164891,-114011,226214,-118398,-114063,66547,231552,36422
1019566,-113696,-107955,36679,313429,165001,-114021,226229,-118393,-114078,66488,231639,36441
1019567,-113641,-107963,36672,313484,165067,-114023,226159,-118392,-114077,66438,231848,36437
1019568,-113606,-107947,36693,313538,165003,-114018,226149,-118351,-114072,66482,231926,36458
1019569,-113636,-107938,36689,313546,164967,-113990,226165,-118316,-114041,66525,232003,36453
1019570,-113653,-107942,36677,313535,164914,-113983,226151,-118314,-114037,66555,232062,36444
1019571,-113646,-107942,36672,313521,164852,-113993,226109,-118330,-114046,66570,232011,36437
1019572,-113670,-107952,36632,313437,164749,-113996,226122,-118349,-114048,66618,231947,36398
1019573,-113698,-107986,36596,313283,164690,-114008,226194,-118376,-114062,66583,231848,36362
1019574,-113731,-108001,36620,313255,164734,-114084,226188,-118426,-114136,66433,231718,36387
1019575,-113750,-108014,36589,313252,164766,-114114,226182,-118438,-114168,66351,231626,36352
1019576,-113786,-108026,36559,313275,164798,-114159,226107,-118470,-114212,66288,231514,36327
1019577,-113801,-108032,36488,313297,164852,-114170,226019,-118483,-114225,66306,231418,36257
1019578,-113839,-108054,36432,313187,164856,-114163,225970,-118478,-114216,66320,231436,36199
1019579,-113861,-108081,36423,313106,164783,-114181,225991,-118474,-114235,66335,231516,36187
1019580,-113883,-108082,36447,313158,164691,-114176,225979,-118474,-114229,66345,231603,36212
1019581,-113888,-108080,36515,313179,164684,-114153,225949,-118473,-114206,66380,231619,36281
1019582,-113875,-108084,36513,313138,164728,-114124,225995,-118459,-114175,66390,231688,36277
1019583,-113850,-108053,36531,313217,164658,-114121,226097,-118469,-114173,66362,231739,36298
1019584,-113818,-108039,36518,313249,164639,-114139,226199,-118476,-114189,66384,231757,36284
1019585,-113786,-108042,36492,313294,164709,-114101,226260,-118464,-114155,66406,231744,36255
1019586,-113757,-108031,36472,313225,164902,-114092,226308,-118473,-114145,66466,231860,36237
1019587,-113716,-108028,36503,313172,164999,-114082,226323,-118480,-114135,66481,231946,36268
1019588,-113635,-108006,36549,313210,165005,-114087,226311,-118429,-114144,66475,231927,36315
1019589,-113584,-107982,36565,313258,164943,-114090,226320,-118399,-114146,66513,231861,36330
1019590,-113576,-107990,36534,313344,164926,-114130,226310,-118412,-114185,66530,231820,36297
1019591,-113614,-107998,36480,313319,164958,-114146,226309,-118400,-114200,66505,231806,36242
1019592,-113685,-108039,36453,313255,164890,-114103,226282,-118397,-114157,66465,231763,36218
1019593,-113749,-108068,36411,313177,164849,-114096,226216,-118412,-114147,66469,231723,36176
1019594,-113793,-108088,36377,313116,164804,-114113,226200,-118451,-114167,66447,231662,36143
1019595,-113804,-108101,36339,313100,164744,-114119,226174,-118480,-114173,66452,231578,36104
1019596,-113830,-108107,36352,313037,164567,-114123,226129,-118498,-114175,66407,231547,36121
1019597,-113849,-108095,36376,313039,164415,-114138,226141,-118501,-114191,66381,231429,36142
1019598,-113848,-108112,36363,312998,164456,-114145,226126,-118502,-114197,66326,231319,36128
1019599,-113829,-108126,36335,312799,164575,-114147,226093,-118485,-114197,66273,231384,36102
1019600,-113804,-108112,36310,312647,164657,-114127,226052,-118469,-114179,66225,231528,36073
1019601,-113777,-108108,36336,312719,164650,-114161,226057,-118472,-114215,66148,231538,36100
1019602,-113790,-108101,36357,312879,164678,-114182,226082,-118485,-114233,66123,231550,36121
1019603,-113790,-108087,36405,313058,164757,-114178,226125,-118482,-114231,66123,231438,36170
1019604,-113757,-108069,36439,313236,164808,-114156,226104,-118476,-114208,66141,231332,36206
1019605,-113768,-108059,36449,313335,164837,-114142,226076,-118505,-114197,66174,231385,36218
1019606,-113781,-108045,36454,313325,164852,-114094,226103,-118485,-114148,66293,231528,36220
1019607,-113745,-108039,36451,313332,164895,-114066,226147,-118469,-114119,66349,231586,36215
1019608,-113725,-108029,36462,313330,164830,-114046,226154,-118453,-114100,66426,231745,36227
1019609,-113725,-108018,36469,313289,164773,-114039,226185,-118458,-114092,66471,231865,36236
1019610,-113730,-108011,36510,313272,164586,-114047,226181,-118439,-114101,66502,231923,36277
1019611,-113760,-108014,36543,313332,164390,-114106,226171,-118421,-114158,66553,231909,36312
1019612,-113775,-108022,36507,313283,164358,-114160,226156,-118404,-114212,66543,231765,36274
1019613,-113816,-108056,36457,313255,164544,-114202,226117,-118457,-114256,66465,231593,36225
1019614,-113863,-108075,36410,313118,164628,-114202,226023,-118511,-114256,66365,231650,36171
1019615,-113932,-108103,36353,313018,164687,-114170,225943,-118542,-114222,66339,231705,36118
1019616,-113980,-108131,36295,312940,164662,-114153,225889,-118563,-114207,66350,231720,36060
1019617,-113990,-108130,36280,312938,164604,-114141,225846,-118584,-114196,66332,231688,36044
1019618,-113982,-108137,36330,312984,164484,-114150,225837,-118611,-114204,66271,231622,36092
1019619,-113989,-108136,36323,312938,164480,-114182,225878,-118600,-114235,66254,231514,36090
1019620,-114001,-108141,36322,312895,164658,-114162,225898,-118570,-114212,66308,231291,36093
1019621,-113978,-108124,36380,312983,164765,-114158,225878,-118566,-114213,66283,231162,36145
1019622,-113970,-108113,36385,313101,164789,-114194,225901,-118559,-114248,66228,231297,36153
1019623,-113987,-108135,36392,313168,164801,-114236,225814,-118594,-114291,66252,231674,36155
1019624,-113952,-108125,36424,313199,164853,-114225,225831,-118568,-114281,66286,231696,36188
1019625,-113918,-108089,36466,313254,164905,-114193,225855,-118542,-114246,66288,231660,36231
1019626,-113866,-108048,36492,313264,164944,-114174,225913,-118533,-114229,66293,231759,36258
1019627,-113867,-108023,36530,313254,165000,-114109,225954,-118532,-114164,66325,231804,36295
1019628,-113843,-108014,36543,313294,165036,-114071,225966,-118510,-114125,66373,231813,36309
1019629,-113828,-108012,36541,313298,165025,-114054,226039,-118533,-114109,66428,231843,36308
1019630,-113829,-108026,36506,313235,164997,-114054,226172,-118563,-114108,66487,231794,36273
1019631,-113828,-108042,36512,313156,164982,-114078,226202,-118600,-114129,66506,231773,36278
1019632,-113857,-108071,36522,313051,164912,-114074,226188,-118604,-114128,66492,231748,36287
1019633,-113883,-108087,36519,313035,164749,-114109,226151,-118606,-114165,66429,231714,36283
1019634,-113908,-108098,36491,313062,164575,-114126,226081,-118607,-114177,66407,231665,36256
1019635,-113924,-108105,36481,313079,164542,-114146,226009,-118595,-114202,66353,231616,36243
1019636,-113958,-108115,36458,313064,164584,-114204,225920,-118616,-114259,66273,231599,36222
1019637,-113985,-108104,36457,313080,164537,-114220,225847,-118604,-114275,66286,231508,36223
1019638,-114027,-108122,36467,313109,164521,-114243,225820,-118640,-114294,66305,231440,36231
1019639,-114066,-108148,36453,313074,164558,-114252,225777,-118668,-114305,66280,231510,36218
1019640,-114061,-108158,36441,313043,164603,-114239,225776,-118672,-114292,66286,231592,36208
1019641,-114037,-108134,36452,313074,164575,-114210,225867,-118654,-114263,66303,231502,36216
1019642,-113996,-108134,36489,313104,164556,-114196,225905,-118637,-114249,66311,231457,36258
1019643,-113956,-108107,36530,313144,164591,-114169,225922,-118609,-114223,66286,231507,36299
1019644,-113928,-108090,36544,313182,164660,-114189,225884,-118599,-114244,66286,231657,36310
1019645,-113936,-108068,36552,313246,164710,-114172,225880,-118582,-114228,66301,231704,36317
1019646,-113954,-108075,36578,313272,164726,-114125,225951,-118561,-114176,66402,231788,36340
1019647,-113898,-108076,36570,313299,164821,-114145,226041,-118559,-114199,66409,231814,36337
1019648,-113867,-108051,36567,313354,164847,-114155,226110,-118555,-114207,66441,231868,36331
1019649,-113832,-108027,36602,313417,164791,-114150,226182,-118510,-114204,66423,231764,36365
1019650,-113784,-108014,36643,313437,164799,-114144,226275,-118483,-114197,66373,231518,36405
1019651,-113779,-108013,36603,313332,164898,-114161,226306,-118484,-114217,66275,231486,36365
1019652,-113795,-108037,36568,313231,164923,-114220,226246,-118526,-114278,66248,231587,36332
1019653,-113846,-108079,36520,313216,164829,-114237,226179,-118572,-114289,66235,231651,36281
1019654,-113903,-108127,36447,313145,164757,-114222,226104,-118594,-114277,66286,231675,36216
1019655,-113942,-108146,36424,312998,164689,-114173,226045,-118602,-114228,66389,231715,36187
1019656,-113967,-108185,36391,312905,164625,-114181,226004,-118637,-114235,66433,231673,36156
1019657,-114003,-108193,36426,312945,164645,-114156,225975,-118640,-114210,66387,231507,36190
1019658,-114029,-108205,36401,313019,164647,-114161,225957,-118643,-114215,66342,231361,36166
1019659,-114026,-108203,36355,313099,164691,-114179,225963,-118649,-114231,66267,231304,36119
1019660,-114002,-108174,36330,313162,164659,-114204,226001,-118647,-114256,66238,231351,36096
1019661,-114026,-108160,36317,313206,164654,-114210,226034,-118629,-114260,66255,231393,36082
1019662,-114024,-108149,36345,313190,164737,-114200,226041,-118615,-114249,66230,231477,36108
1019663,-114017,-108139,36448,313182,164769,-114197,225949,-118603,-114247,66230,231635,36215
1019664,-113985,-108125,36557,313180,164749,-114187,225868,-118585,-114243,66273,231822,36323
1019665,-113949,-108141,36550,313177,164675,-114183,225955,-118560,-114234,66353,231915,36317
1019666,-113865,-108132,36537,313214,164646,-114193,226069,-118535,-114247,66489,231951,36302
1019667,-113801,-108097,36500,313252,164653,-114167,226129,-118528,-114219,66559,231907,36267
1019668,-113766,-108081,36513,313202,164613,-114085,226229,-118464,-114138,66604,231912,36280
1019669,-113748,-108060,36552,313098,164599,-114019,226308,-118431,-114071,66604,231949,36321
1019670,-113770,-108053,36557,313091,164534,-113987,226296,-118458,-114041,66599,232072,36324
1019671,-113775,-108070,36590,313136,164470,-114008,226249,-118483,-114057,66598,232009,36361
1019672,-113843,-108095,36569,313175,164477,-114062,226159,-118532,-114112,66524,232086,36336
1019673,-113936,-108152,36553,313211,164607,-114104,226042,-118594,-114159,66430,232127,36319
1019674,-113967,-108163,36523,313187,164685,-114117,225932,-118599,-114168,66407,232010,36287
1019675,-113990,-108180,36495,313118,164716,-114138,225893,-118595,-114191,66401,231931,36261
1019676,-114019,-108207,36435,313007,164840,-114198,225806,-118569,-114251,66418,231854,36201
1019677,-114035,-108217,36390,313020,164933,-114244,225768,-118556,-114297,66430,231707,36157
1019678,-114052,-108208,36394,313080,164880,-114250,225738,-118539,-114303,66424,231571,36162
1019679,-114061,-108219,36398,313164,164828,-114212,225746,-118545,-114267,66421,231438,36163
1019680,-114066,-108207,36402,313232,164908,-114211,225776,-118550,-114260,66434,231325,36170
1019681,-114029,-108206,36391,313159,164943,-114166,225787,-118570,-114220,66477,231346,36157
1019682,-113990,-108177,36431,313239,165003,-114166,225827,-118633,-114219,66407,231443,36196
1019683,-113990,-108187,36457,313326,164991,-114148,225932,-118629,-114199,66406,231454,36222
1019684,-113956,-108160,36479,313363,164933,-114110,226030,-118585,-114161,66444,231495,36242
1019685,-113919,-108158,36478,313373,164924,-114109,226092,-118567,-114160,66431,231602,36242
1019686,-113877,-108144,36476,313369,164997,-114073,226213,-118535,-114123,66443,231673,36244
1019687,-113845,-108127,36481,313370,165050,-114054,226273,-118515,-114107,66497,231666,36243
1019688,-113806,-108107,36497,313367,165041,-114054,226294,-118505,-114105,66517,231829,36266
1019689,-113779,-108093,36532,313348,165032,-114076,226300,-118508,-114128,66518,231928,36299
1019690,-113781,-108084,36543,313339,164968,-114095,226301,-118511,-114147,66502,231965,36310
1019691,-113795,-108096,36544,313288,164945,-114116,226320,-118522,-114169,66486,231996,36309
1019692,-113835,-108114,36498,313249,164892,-114120,226298,-118514,-114173,66455,231969,36263
1019693,-113841,-108125,36469,313153,164847,-114130,226290,-118523,-114181,66381,231890,36239
1019694,-113852,-108144,36465,313105,164797,-114164,226218,-118557,-114219,66322,231819,36231
1019695,-113868,-108143,36454,313105,164784,-114171,226148,-118579,-114223,66270,231802,36219
1019696,-113889,-108144,36412,313119,164715,-114149,226083,-118595,-114202,66247,231688,36180
1019697,-113911,-108153,36383,313149,164613,-114152,226072,-118598,-114204,66297,231543,36149
1019698,-113936,-108171,36337,313090,164520,-114156,226057,-118594,-114206,66320,231550,36106
1019699,-113964,-108193,36365,313072,164490,-114179,226019,-118604,-114235,66317,231556,36131
1019700,-113940,-108184,36418,313134,164531,-114184,226017,-118592,-114234,66341,231415,36181
1019701,-113886,-108154,36452,313150,164559,-114234,226041,-118565,-114286,66345,231363,36216
1019702,-113853,-108122,36436,313164,164618,-114302,226073,-118547,-114356,66342,231401,36202
1019703,-113845,-108110,36384,313109,164650,-114296,226110,-118519,-114348,66330,231604,36151
1019704,-113804,-108116,36356,313097,164663,-114266,226131,-118475,-114319,66385,231768,36122
1019705,-113811,-108128,36372,313053,164647,-114197,226144,-118463,-114251,66458,231812,36137
1019706,-113803,-108121,36454,312997,164745,-114101,226165,-118451,-114153,66546,231835,36221
1019707,-113806,-108077,36495,313082,164824,-114047,226205,-118458,-114104,66513,231878,36262
1019708,-113791,-108047,36516,313167,164823,-114041,226190,-118461,-114094,66542,231974,36281
1019709,-113784,-108016,36530,313196,164754,-114014,226116,-118414,-114066,66592,232018,36298
1019710,-113747,-108009,36501,313192,164659,-113990,226051,-118385,-114041,66603,232021,36269
1019711,-113747,-108019,36479,313172,164682,-113994,226047,-118389,-114047,66544,231973,36247
1019712,-113770,-108036,36457,313168,164637,-114036,226106,-118442,-114091,66512,231876,36219
1019713,-113822,-108072,36399,313095,164576,-114080,226187,-118474,-114135,66536,231761,36163
1019714,-113859,-108122,36336,313085,164638,-114125,226153,-118546,-114181,66475,231777,36098
1019715,-113877,-108153,36337,313091,164697,-114148,226079,-118569,-114203,66398,231781,36103
1019716,-113921,-108193,36311,313016,164726,-114191,226091,-118603,-114244,66351,231660,36078
1019717,-113922,-108192,36327,313033,164649,-114175,226120,-118582,-114231,66345,231487,36094
1019718,-113937,-108215,36302,313034,164552,-114177,226101,-118577,-114230,66337,231378,36070
1019719,-113944,-108202,36304,313008,164598,-114206,226069,-118569,-114258,66314,231381,36069
1019720,-113930,-108174,36320,313066,164732,-114224,226021,-118576,-114278,66265,231333,36082
1019721,-113914,-108186,36290,313094,164729,-114210,225989,-118576,-114265,66264,231490,36054
1019722,-113888,-108160,36286,313152,164716,-114185,226026,-118540,-114237,66266,231532,36050
1019723,-113865,-108138,36286,313203,164739,-114156,226064,-118529,-114206,66315,231477,36051
1019724,-113848,-108131,36277,313205,164783,-114142,226120,-118504,-114192,66366,231550,36042
1019725,-113816,-108128,36258,313230,164766,-114151,226153,-118479,-114203,66374,231661,36022
1019726,-113769,-108111,36311,313292,164783,-114185,226238,-118436,-114238,66423,231675,36076
1019727,-113747,-108101,36396,313343,164855,-114133,226253,-118417,-114185,66442,231575,36165
1019728,-113716,-108077,36460,313351,164916,-114111,226287,-118405,-114166,66432,231611,36222
1019729,-113701,-108072,36515,313330,164945,-114074,226300,-118405,-114128,66462,231597,36283
1019730,-113731,-108055,36519,313332,164983,-114038,226262,-118429,-114090,66484,231593,36284
1019731,-113776,-108071,36510,313366,164963,-114017,226206,-118457,-114071,66465,231663,36273
1019732,-113795,-108070,36471,313276,164952,-114023,226154,-118501,-114076,66487,231635,36234
1019733,-113801,-108079,36457,313155,164755,-114073,226107,-118525,-114125,66515,231671,36223
1019734,-113862,-108100,36429,313106,164635,-114101,226092,-118522,-114152,66469,231677,36196
1019735,-113882,-108112,36407,313082,164627,-114126,226063,-118539,-114176,66421,231726,36174
1019736,-113911,-108129,36398,313131,164538,-114178,226005,-118576,-114231,66394,231676,36168
1019737,-113957,-108136,36386,313094,164507,-114210,226007,-118575,-114261,66392,231682,36153
1019738,-114012,-108155,36372,313084,164520,-114235,225949,-118584,-114289,66406,231665,36136
1019739,-113995,-108145,36385,313092,164535,-114220,225835,-118602,-114272,66397,231661,36150
1019740,-113965,-108122,36347,313051,164600,-114181,225828,-118587,-114233,66388,231624,36109
1019741,-113965,-108111,36339,313013,164605,-114125,225916,-118563,-114178,66439,231649,36103
1019742,-113980,-108108,36357,313000,164623,-114066,225921,-118546,-114118,66458,231726,36123
1019743,-113988,-108076,36401,313029,164634,-114055,225852,-118552,-114110,66452,231920,36166
1019744,-113918,-108055,36478,313137,164641,-114060,225889,-118560,-114113,66454,231925,36244
1019745,-113901,-108037,36501,313231,164688,-114064,225940,-118568,-114116,66491,231875,36266
1019746,-113878,-108020,36509,313279,164763,-114040,226002,-118551,-114093,66540,231918,36275
1019747,-113794,-107985,36527,313334,164749,-114034,226106,-118545,-114088,66512,231848,36295
1019748,-113708,-107960,36566,313386,164722,-114007,226194,-118525,-114060,66476,231826,36333
1019749,-113693,-107969,36576,313329,164811,-114008,226212,-118517,-114061,66499,231885,36342
1019750,-113734,-107970,36585,313270,164876,-114052,226252,-118525,-114102,66505,231915,36350
1019751,-113756,-107969,36600,313247,164940,-114085,226229,-118527,-114136,66500,231855,36361
1019752,-113796,-107972,36634,313250,164971,-114155,226212,-118573,-114208,66444,231697,36399
1019753,-113804,-107983,36635,313286,164929,-114206,226197,-118598,-114260,66429,231481,36404
1019754,-113821,-107999,36593,313322,164902,-114226,226069,-118626,-114277,66381,231360,36357
1019755,-113829,-108007,36547,313301,164871,-114178,226009,-118615,-114230,66343,231304,36309
1019756,-113856,-108008,36542,313294,164824,-114198,225986,-118642,-114252,66271,231156,36308
1019757,-113862,-107999,36534,313297,164679,-114202,225971,-118669,-114254,66242,231157,36299
1019758,-113877,-108000,36550,313249,164589,-114253,225917,-118688,-114302,66188,231322,36316
1019759,-113886,-108019,36579,313111,164518,-114255,225907,-118683,-114311,66235,231391,36340
1019760,-113901,-108025,36604,313103,164466,-114274,225961,-118693,-114326,66301,231341,36368
1019761,-113905,-108026,36639,313195,164495,-114283,225973,-118712,-114339,66266,231424,36405
1019762,-113926,-108039,36630,313196,164688,-114307,225952,-118730,-114356,66245,231564,36395
1019763,-113922,-108050,36619,313206,164932,-114301,225958,-118744,-114352,66257,231596,36381
1019764,-113909,-108032,36634,313233,164991,-114247,226008,-118709,-114297,66287,231552,36399
1019765,-113896,-108045,36640,313283,164992,-114235,226030,-118712,-114290,66272,231639,36408
1019766,-113846,-108027,36698,313335,164983,-114200,226074,-118688,-114253,66283,231763,36463
1019767,-113812,-108000,36743,313394,164939,-114198,226104,-118664,-114250,66332,231765,36509
1019768,-113784,-107961,36773,313437,164933,-114164,226127,-118635,-114216,66381,231725,36539
1019769,-113760,-107930,36804,313441,165000,-114205,226118,-118626,-114259,66378,231784,36569
1019770,-113749,-107937,36793,313413,164999,-114276,226122,-118650,-114327,66335,231894,36561
1019771,-113770,-107952,36754,313391,164917,-114296,226085,-118650,-114349,66338,231985,36519
1019772,-113818,-107992,36720,313335,164777,-114313,226073,-118649,-114368,66339,232020,36481
1019773,-113860,-108010,36712,313261,164608,-114296,226038,-118652,-114347,66337,231926,36476
1019774,-113890,-107996,36725,313187,164521,-114266,225985,-118693,-114324,66304,231803,36491
1019775,-113894,-108006,36738,313105,164514,-114218,225863,-118722,-114271,66317,231715,36505
1019776,-113927,-108042,36762,313019,164514,-114224,225735,-118724,-114278,66312,231645,36525
1019777,-113980,-108070,36776,313071,164533,-114268,225749,-118776,-114316,66223,231589,36541
1019778,-113993,-108074,36779,313100,164525,-114355,225822,-118805,-114408,66187,231446,36545
1019779,-114004,-108076,36805,313063,164546,-114397,225856,-118823,-114447,66228,231258,36573
1019780,-114017,-108063,36782,312987,164560,-114371,225926,-118796,-114420,66263,231229,36550
1019781,-114014,-108072,36752,312925,164481,-114339,226005,-118761,-114392,66289,231314,36520
1019782,-114012,-108065,36748,312928,164512,-114324,226036,-118742,-114375,66218,231471,36516
1019783,-113981,-108067,36776,312946,164556,-114295,226042,-118742,-114349,66244,231521,36543
1019784,-113924,-108055,36811,312947,164518,-114215,226081,-118702,-114267,66328,231499,36576
1019785,-113878,-108028,36850,313047,164498,-114208,226107,-118722,-114260,66316,231407,36615
1019786,-113797,-107992,36865,313087,164505,-114186,226156,-118691,-114240,66314,231445,36630
1019787,-113770,-107990,36821,313088,164527,-114181,226174,-118655,-114232,66327,231575,36585
1019788,-113765,-107979,36826,313078,164603,-114189,226186,-118649,-114243,66417,231701,36590
1019789,-113782,-107994,36836,313160,164717,-114229,226169,-118616,-114283,66399,231686,36602
1019790,-113766,-107991,36874,313195,164748,-114281,226118,-118598,-114334,66431,231562,36640
1019791,-113776,-107975,36904,313227,164760,-114337,226077,-118647,-114387,66402,231465,36669
1019792,-113855,-108011,36913,313257,164731,-114405,226033,-118725,-114458,66305,231650,36677
1019793,-113933,-108072,36886,313271,164893,-114424,225954,-118780,-114479,66193,231620,36651
1019794,-113967,-108115,36839,313226,164939,-114417,225873,-118809,-114471,66165,231499,36606
1019795,-113995,-108133,36778,313249,164922,-114401,225793,-118833,-114458,66192,231432,36545
1019796,-114054,-108184,36710,313195,164786,-114401,225784,-118874,-114449,66185,231527,36479
1019797,-114052,-108184,36710,313181,164654,-114402,225757,-118879,-114454,66136,231511,36475
1019798,-114076,-108181,36704,313102,164560,-114409,225717,-118863,-114464,66149,231489,36470
1019799,-114096,-108187,36702,313080,164597,-114402,225731,-118858,-114458,66091,231441,36468
1019800,-114060,-108181,36658,313056,164652,-114399,225798,-118837,-114451,66093,231345,36423
1019801,-114031,-108158,36635,313094,164645,-114402,225846,-118819,-114458,66059,231362,36399
1019802,-114017,-108146,36658,313096,164585,-114396,225908,-118812,-114450,66105,231447,36422
1019803,-114018,-108132,36676,313110,164585,-114375,225995,-118812,-114431,66163,231490,36440
1019804,-114030,-108110,36748,313138,164566,-114359,226024,-118781,-114411,66207,231540,36513
1019805,-114009,-108098,36756,313066,164491,-114360,226060,-118744,-114412,66262,231674,36520
1019806,-113961,-108093,36783,313052,164568,-114333,226120,-118708,-114388,66313,231704,36548
1019807,-113942,-108093,36810,313016,164676,-114287,226134,-118678,-114339,66371,231732,36575
1019808,-113924,-108075,36892,313066,164821,-114300,226143,-118684,-114352,66326,231716,36659
1019809,-113869,-108059,36953,313156,164856,-114305,226112,-118680,-114355,66265,231713,36720
1019810,-113832,-108054,36966,313190,164834,-114321,226106,-118691,-114377,66254,231673,36728
1019811,-113850,-108088,36953,313210,164694,-114293,226086,-118676,-114347,66301,231639,36715
1019812,-113898,-108098,36907,313197,164557,-114266,226033,-118669,-114319,66317,231584,36675
1019813,-113944,-108118,36849,313100,164564,-114269,225965,-118682,-114321,66294,231535,36616
1019814,-113995,-108180,36777,313024,164640,-114334,225915,-118714,-114389,66283,231561,36544
1019815,-114021,-108202,36728,313023,164679,-114394,225878,-118729,-114446,66282,231536,36492
1019816,-114040,-108208,36709,312981,164635,-114418,225851,-118755,-114473,66254,231413,36473
1019817,-114037,-108208,36742,312965,164568,-114438,225913,-118756,-114490,66252,231245,36507
1019818,-114042,-108208,36733,312918,164434,-114437,225968,-118770,-114492,66232,231179,36499
1019819,-114052,-108213,36756,312894,164283,-114386,225958,-118784,-114439,66239,231250,36521
1019820,-114043,-108232,36740,312905,164298,-114361,225945,-118785,-114415,66223,231354,36504
1019821,-114041,-108218,36745,312928,164380,-114333,225947,-118780,-114387,66179,231387,36507
1019822,-114021,-108218,36738,312926,164359,-114327,226022,-118746,-114381,66225,231437,36498
1019823,-113975,-108184,36747,312972,164247,-114337,226072,-118681,-114390,66284,231491,36512
1019824,-113939,-108156,36748,313013,164356,-114322,226087,-118672,-114377,66294,231485,36512
1019825,-113925,-108150,36770,313001,164558,-114335,226128,-118650,-114386,66288,231444,36534
1019826,-113905,-108114,36820,313041,164743,-114317,226153,-118649,-114369,66315,231426,36588
1019827,-113906,-108091,36849,313192,164861,-114304,226187,-118628,-114358,66331,231393,36613
1019828,-113874,-108080,36872,313286,164882,-114248,226217,-118611,-114303,66359,231399,36639
1019829,-113876,-108085,36888,313291,164921,-114226,226236,-118650,-114279,66357,231589,36653
1019830,-113903,-108119,36878,313279,164904,-114218,226244,-118671,-114271,66350,231704,36644
1019831,-113943,-108155,36854,313264,164909,-114211,226174,-118692,-114265,66363,231823,36618
1019832,-113984,-108179,36834,313262,164818,-114209,226096,-118693,-114265,66390,231849,36599
1019833,-113993,-108195,36847,313156,164704,-114225,226065,-118700,-114278,66391,231812,36612
1019834,-114020,-108212,36829,313066,164760,-114261,225956,-118720,-114313,66336,231749,36594
1019835,-114019,-108231,36789,313058,164797,-114262,225817,-118708,-114313,66310,231792,36555
1019836,-114032,-108237,36758,313037,164799,-114273,225740,-118701,-114327,66299,231698,36525
1019837,-114067,-108251,36726,313006,164763,-114251,225717,-118672,-114302,66289,231664,36488
1019838,-114084,-108252,36708,312961,164675,-114249,225759,-118677,-114303,66269,231675,36474
1019839,-114093,-108249,36698,312968,164524,-114238,225873,-118665,-114293,66282,231624,36462
1019840,-114063,-108253,36681,312970,164367,-114208,225939,-118641,-114259,66354,231584,36445
1019841,-114008,-108221,36715,313000,164482,-114203,225909,-118653,-114253,66388,231493,36481
1019842,-113983,-108201,36761,313048,164691,-114214,225845,-118654,-114267,66375,231459,36526
1019843,-113980,-108171,36822,313137,164768,-114216,225850,-118628,-114271,66348,231503,36586
1019844,-114002,-108179,36860,313165,164818,-114228,225931,-118590,-114279,66396,231611,36627
1019845,-113987,-108150,36908,313175,164834,-114308,226015,-118549,-114360,66378,231676,36678
1019846,-113943,-108118,36925,313241,164856,-114328,226089,-118525,-114381,66421,231795,36693
1019847,-113894,-108087,36901,313222,164856,-114305,226209,-118512,-114356,66442,231896,36671
1019848,-113859,-108057,36881,313237,164844,-114253,226332,-118487,-114308,66469,231912,36646
1019849,-113837,-108051,36894,313226,164849,-114164,226368,-118473,-114215,66515,231848,36658
1019850,-113829,-108041,36908,313282,164839,-114102,226392,-118506,-114157,66494,231780,36672
1019851,-113832,-108048,36938,313279,164837,-114066,226311,-118539,-114120,66464,231782,36704
1019852,-113867,-108051,36932,313266,164856,-114082,226185,-118569,-114136,66424,231768,36697
1019853,-113918,-108068,36920,313301,164828,-114097,226154,-118570,-114150,66366,231643,36689
1019854,-113944,-108091,36877,313294,164861,-114139,226091,-118592,-114192,66342,231525,36642
1019855,-113960,-108074,36851,313283,164830,-114187,226062,-118602,-114237,66320,231537,36619
1019856,-113981,-108091,36811,313220,164724,-114225,226033,-118616,-114277,66335,231568,36578
1019857,-114008,-108110,36842,313178,164676,-114253,225999,-118632,-114309,66391,231472,36607
1019858,-114005,-108128,36875,313159,164608,-114265,226017,-118645,-114319,66386,231354,36643
1019859,-114025,-108153,36888,313131,164601,-114235,225960,-118673,-114289,66350,231467,36654
1019860,-114039,-108165,36886,313127,164620,-114216,225985,-118675,-114269,66319,231587,36650
1019861,-114024,-108140,36900,313141,164598,-114178,226034,-118653,-114230,66322,231584,36665
1019862,-113992,-108124,36915,313130,164554,-114182,226085,-118635,-114237,66373,231640,36681
1019863,-113928,-108084,36967,313167,164532,-114184,226102,-118619,-114234,66403,231674,36733
1019864,-113890,-108068,37014,313170,164559,-114166,226174,-118597,-114216,66444,231696,36782
1019865,-113859,-108056,37018,313177,164652,-114143,226188,-118578,-114194,66461,231651,36786
1019866,-113835,-108038,37045,313214,164799,-114128,226194,-118572,-114182,66530,231700,36810
1019867,-113821,-108017,37059,313238,164868,-114135,226193,-118583,-114190,66513,231888,36824
1019868,-113772,-107982,37090,313284,164895,-114121,226221,-118563,-114177,66492,231915,36856
1019869,-113746,-107969,37087,313343,164963,-114108,226264,-118529,-114163,66560,231713,36851
1019870,-113750,-107968,37095,313366,164967,-114121,226290,-118520,-114177,66580,231622,36859
1019871,-113753,-107968,37086,313431,164870,-114197,226269,-118568,-114250,66539,231753,36853
1019872,-113793,-107998,37047,313479,164722,-114231,226199,-118586,-114284,66506,231902,36810
1019873,-113838,-108013,37065,313395,164694,-114278,226121,-118621,-114334,66426,231974,36829
1019874,-113898,-108035,37035,313214,164738,-114302,226056,-118651,-114356,66430,231973,36801
1019875,-113902,-108044,37042,313125,164707,-114294,226044,-118666,-114348,66398,231954,36807
1019876,-113916,-108063,36981,313073,164660,-114302,226040,-118679,-114356,66360,231852,36745
1019877,-113948,-108075,36950,313063,164563,-114269,226019,-118658,-114321,66339,231771,36716
1019878,-113967,-108072,36954,313089,164521,-114235,225954,-118666,-114285,66371,231603,36719
1019879,-113992,-108079,36942,313087,164478,-114213,225945,-118666,-114265,66417,231575,36711
1019880,-113967,-108075,36969,313128,164507,-114254,225906,-118669,-114310,66356,231608,36736
1019881,-113944,-108065,36992,313206,164590,-114246,225842,-118666,-114298,66311,231620,36758
1019882,-113929,-108051,36993,313221,164666,-114230,225893,-118656,-114282,66334,231628,36758
1019883,-113911,-108040,37009,313249,164732,-114232,225962,-118643,-114288,66348,231617,36771
1019884,-113893,-108005,36982,313295,164768,-114243,225975,-118619,-114297,66379,231679,36748
1019885,-113873,-107990,36978,313308,164813,-114223,226000,-118593,-114274,66412,231719,36746
1019886,-113846,-107948,37018,313299,164871,-114194,226094,-118589,-114245,66404,231767,36785
1019887,-113794,-107932,37060,313254,164919,-114176,226206,-118577,-114234,66381,231796,36823
1019888,-113770,-107904,37122,313205,164898,-114123,226249,-118555,-114175,66416,231836,36887
1019889,-113742,-107882,37187,313277,164836,-114114,226259,-118550,-114167,66455,231767,36953
1019890,-113785,-107873,37178,313324,164911,-114130,226243,-118578,-114183,66465,231727,36946
1019891,-113844,-107893,37153,313340,164971,-114151,226136,-118593,-114204,66464,231797,36919
1019892,-113875,-107909,37106,313356,164952,-114170,226017,-118628,-114220,66441,231804,36871
1019893,-113908,-107947,37074,313393,164925,-114222,225995,-118653,-114275,66426,231661,36844
1019894,-113942,-107978,37019,313380,164842,-114269,226019,-118675,-114322,66412,231566,36785
1019895,-113967,-108020,36997,313360,164848,-114300,226044,-118695,-114354,66341,231516,36764
1019896,-113996,-108052,36963,313330,164821,-114334,226005,-118736,-114385,66332,231478,36730
1019897,-113995,-108076,36959,313293,164740,-114325,226024,-118743,-114377,66363,231367,36724
1019898,-113945,-108082,36962,313212,164589,-114339,226063,-118746,-114390,66309,231308,36726
1019899,-113950,-108088,36976,313118,164513,-114329,226057,-118753,-114381,66224,231401,36742
1019900,-113959,-108062,36990,313141,164592,-114377,226013,-118767,-114428,66189,231416,36756
1019901,-113967,-108047,36996,313149,164663,-114407,226010,-118780,-114456,66193,231475,36763
1019902,-113961,-108041,36970,313169,164677,-114390,225976,-118732,-114442,66249,231535,36736
1019903,-113899,-108021,37000,313236,164628,-114387,225921,-118699,-114441,66306,231588,36765
1019904,-113892,-108002,37023,313261,164587,-114382,225950,-118637,-114436,66363,231626,36786
1019905,-113880,-107991,37066,313245,164552,-114347,226014,-118624,-114399,66382,231636,36829
1019906,-113825,-107954,37116,313355,164551,-114315,226072,-118621,-114369,66378,231630,36884
1019907,-113788,-107914,37138,313461,164564,-114265,226184,-118614,-114319,66419,231445,36900
1019908,-113745,-107890,37148,313411,164551,-114191,226308,-118580,-114246,66502,231309,36914
1019909,-113737,-107870,37118,313334,164488,-114138,226359,-118590,-114192,66509,231453,36884
1019910,-113776,-107884,37013,313286,164572,-114166,226312,-118601,-114219,66429,231674,36777
1019911,-113816,-107899,36898,313189,164625,-114176,226331,-118600,-114229,66439,231705,36666
1019912,-113846,-107937,36867,313051,164591,-114203,226298,-118614,-114253,66424,231789,36634
1019913,-113880,-107982,36872,312976,164572,-114252,226238,-118638,-114303,66400,231715,36637
1019914,-113941,-108032,36970,313004,164678,-114338,226120,-118695,-114389,66359,231569,36735
1019915,-113959,-108046,37013,313079,164825,-114422,226040,-118777,-114475,66231,231561,36777
1019916,-113995,-108063,37018,313091,164954,-114465,225918,-118827,-114519,66131,231484,36785
1019917,-114005,-108081,37016,313116,164951,-114455,225816,-118838,-114508,66148,231367,36780
1019918,-114009,-108081,37000,313149,164800,-114437,225755,-118846,-114488,66095,231368,36765
1019919,-114029,-108090,36964,313145,164639,-114425,225760,-118832,-114480,66066,231450,36728
1019920,-114046,-108108,36941,313085,164647,-114395,225768,-118805,-114448,66083,231541,36706
1019921,-114037,-108100,36941,313099,164638,-114377,225790,-118790,-114429,66123,231552,36706
1019922,-114007,-108087,36951,313171,164597,-114410,225884,-118784,-114464,66130,231534,36716
1019923,-113999,-108074,36945,313130,164655,-114385,225935,-118769,-114437,66159,231580,36711
1019924,-113974,-108059,36967,313133,164645,-114350,225935,-118744,-114404,66238,231674,36733
1019925,-113965,-108035,37004,313223,164645,-114372,225905,-118726,-114424,66289,231661,36771
1019926,-113920,-108016,37031,313279,164718,-114339,226019,-118709,-114391,66330,231573,36796
1019927,-113883,-107982,37065,313304,164681,-114301,226139,-118674,-114355,66338,231539,36827
1019928,-113833,-107961,37087,313335,164624,-114269,226195,-118634,-114322,66337,231549,36852
1019929,-113808,-107954,37068,313296,164573,-114246,226249,-118619,-114297,66332,231620,36836
1019930,-113831,-107966,37038,313171,164651,-114260,226228,-118629,-114312,66279,231805,36802
1019931,-113861,-107983,37016,313154,164768,-114280,226169,-118669,-114334,66256,231806,36782
1019932,-113900,-108001,36988,313131,164855,-114322,226110,-118687,-114377,66237,231685,36753
1019933,-113940,-108029,36941,313100,164912,-114334,226066,-118690,-114385,66196,231523,36706
1019934,-113984,-108058,36919,313094,164851,-114370,225979,-118700,-114424,66241,231397,36682
1019935,-114012,-108075,36887,313066,164845,-114389,225920,-118734,-114442,66204,231495,36653
1019936,-114048,-108097,36876,313075,164809,-114402,225896,-118787,-114456,66082,231477,36640
1019937,-114091,-108116,36837,313038,164702,-114359,225922,-118790,-114414,66119,231407,36603
1019938,-114104,-108126,36803,313039,164644,-114373,225905,-118814,-114425,66124,231418,36566
1019939,-114125,-108142,36795,312998,164664,-114402,225905,-118812,-114454,66105,231453,36562
1019940,-114111,-108145,36810,312919,164644,-114391,225921,-118780,-114443,66161,231490,36576
1019941,-114093,-108149,36856,312935,164644,-114408,225950,-118774,-114460,66176,231460,36622
1019942,-114075,-108134,36880,313020,164645,-114453,225970,-118766,-114507,66191,231453,36644
1019943,-114044,-108119,36894,313093,164659,-114448,225995,-118739,-114503,66204,231468,36659
1019944,-114007,-108096,36910,313143,164667,-114432,226053,-118704,-114488,66195,231450,36675
1019945,-113943,-108089,36891,313171,164682,-114405,226072,-118684,-114459,66168,231446,36653
1019946,-113908,-108055,36872,313217,164691,-114364,226128,-118654,-114418,66188,231518,36641
1019947,-113859,-108029,36877,313262,164730,-114336,226134,-118656,-114391,66202,231582,36641
1019948,-113834,-108031,36867,313273,164757,-114296,226163,-118637,-114349,66259,231660,36635
1019949,-113835,-108035,36871,313249,164741,-114268,226214,-118618,-114321,66325,231699,36638
1019950,-113831,-108026,36898,313264,164592,-114251,226221,-118600,-114306,66387,231695,36661
1019951,-113827,-108025,36924,313265,164544,-114285,226239,-118609,-114341,66387,231590,36690
1019952,-113831,-108029,36907,313162,164605,-114303,226222,-118616,-114356,66365,231387,36673
1019953,-113851,-108031,36864,313082,164539,-114309,226146,-118614,-114364,66391,231299,36629
1019954,-113900,-108059,36809,313023,164541,-114325,226042,-118646,-114380,66378,231249,36572
1019955,-113957,-108084,36801,313046,164507,-114313,226010,-118627,-114367,66336,231215,36564
1019956,-114032,-108131,36789,313006,164473,-114393,225966,-118650,-114449,66275,231289,36553
1019957,-114058,-108163,36803,312970,164485,-114468,225925,-118656,-114523,66249,231326,36569
1019958,-114104,-108187,36803,312855,164368,-114469,225933,-118639,-114522,66276,231473,36566
1019959,-114121,-108180,36805,312915,164223,-114495,225908,-118678,-114548,66214,231645,36568
1019960,-114101,-108180,36813,312941,164197,-114464,225942,-118687,-114516,66237,231704,36577
1019961,-114099,-108204,36789,312802,164288,-114417,225960,-118671,-114471,66309,231692,36552
1019962,-114085,-108200,36782,312724,164401,-114372,225995,-118660,-114427,66356,231670,36544
1019963,-114038,-108185,36787,312798,164505,-114338,225964,-118631,-114393,66338,231639,36552
1019964,-113981,-108145,36795,312882,164546,-114310,225899,-118601,-114364,66338,231673,36556
1019965,-113964,-108137,36807,313007,164585,-114303,225870,-118610,-114358,66303,231708,36571
1019966,-113930,-108113,36831,313180,164694,-114271,225896,-118604,-114321,66344,231660,36596
1019967,-113919,-108097,36857,313175,164784,-114226,225957,-118560,-114277,66373,231621,36624
1019968,-113897,-108072,36883,313239,164791,-114208,226082,-118544,-114262,66335,231647,36647
1019969,-113906,-108054,36917,313294,164830,-114226,226194,-118576,-114281,66260,231714,36681
1019970,-113925,-108040,36957,313240,164804,-114216,226282,-118561,-114268,66279,231633,36724
1019971,-113922,-108041,36997,313201,164802,-114240,226188,-118562,-114293,66316,231592,36761
1019972,-113939,-108063,36973,313129,164843,-114255,226011,-118576,-114310,66342,231589,36737
1019973,-113950,-108078,36941,313124,164794,-114269,225908,-118590,-114324,66336,231509,36706
1019974,-113989,-108119,36896,313136,164739,-114318,225859,-118659,-114372,66237,231605,36659
1019975,-114017,-108144,36846,313056,164683,-114339,225889,-118647,-114391,66180,231704,36612
1019976,-114063,-108184,36776,312947,164657,-114385,225924,-118653,-114441,66199,231675,36543
1019977,-114052,-108199,36785,313017,164536,-114433,225843,-118685,-114486,66224,231689,36550
1019978,-114039,-108197,36807,313100,164402,-114433,225843,-118680,-114490,66200,231568,36576
1019979,-114058,-108190,36830,313093,164313,-114386,225947,-118669,-114439,66193,231351,36594
1019980,-114060,-108170,36825,313099,164428,-114351,225946,-118644,-114402,66183,231237,36591
1019981,-114046,-108171,36813,313131,164521,-114347,225960,-118663,-114402,66145,231293,36579
1019982,-114010,-108158,36821,313156,164492,-114333,225968,-118667,-114384,66180,231373,36588
1019983,-114003,-108152,36838,313098,164582,-114317,225937,-118638,-114372,66239,231466,36603
1019984,-114003,-108144,36863,313078,164672,-114289,225981,-118616,-114342,66321,231478,36625
1019985,-114020,-108129,36877,313128,164728,-114294,226037,-118603,-114346,66413,231389,36642
1019986,-113968,-108081,36904,313208,164830,-114279,226089,-118601,-114332,66409,231503,36668
1019987,-113951,-108065,36916,313279,164901,-114269,226087,-118609,-114323,66349,231697,36680
1019988,-113896,-108016,36923,313354,164864,-114256,226129,-118601,-114310,66338,231781,36689
1019989,-113902,-108013,36903,313406,164853,-114236,226155,-118584,-114287,66386,231816,36668
1019990,-113898,-108013,36906,313383,164856,-114253,226172,-118585,-114308,66362,231843,36667
1019991,-113928,-108014,36967,313354,164830,-114249,226107,-118579,-114305,66415,231783,36733
1019992,-113969,-108028,36969,313283,164726,-114266,226103,-118571,-114322,66447,231725,36733
1019993,-113997,-108054,36987,313245,164728,-114309,226057,-118625,-114365,66409,231670,36751
1019994,-114014,-108078,36966,313166,164756,-114358,226027,-118654,-114408,66338,231621,36731
1019995,-114024,-108101,36990,313118,164733,-114384,226035,-118669,-114440,66276,231604,36754
1019996,-114082,-108121,36950,313074,164690,-114395,226001,-118665,-114448,66224,231611,36714
1019997,-114098,-108136,36917,313061,164643,-114406,225992,-118683,-114458,66206,231614,36679
1019998,-114123,-108143,36870,313060,164599,-114386,225971,-118665,-114437,66257,231485,36634
1019999,-114114,-108143,36859,313066,164640,-114363,225948,-118668,-114414,66249,231339,36625
1020000,-114095,-108142,36860,313124,164645,-114353,225964,-118683,-114407,66207,231350,36628
1020001,-114049,-108113,36903,313175,164607,-114364,225930,-118681,-114418,66173,231436,36672
1020002,-114023,-108099,36944,313181,164526,-114360,225936,-118676,-114412,66221,231523,36711
1020003,-113980,-108081,36975,313183,164412,-114365,225991,-118638,-114418,66308,231583,36740
1020004,-113918,-108065,36978,313174,164305,-114304,226118,-118570,-114355,66354,231546,36744
1020005,-113872,-108072,36973,313133,164306,-114283,226206,-118561,-114335,66353,231633,36736
1020006,-113855,-108048,37007,313150,164532,-114260,226218,-118565,-114313,66344,231726,36773
1020007,-113846,-108053,37012,313134,164871,-114277,226187,-118544,-114329,66414,231666,36780
1020008,-113841,-108017,37006,313218,164981,-114299,226166,-118541,-114352,66455,231709,36771
1020009,-113871,-108020,36949,313315,164971,-114284,226107,-118515,-114336,66455,231919,36714
1020010,-113894,-108033,36918,313374,164990,-114214,226039,-118486,-114265,66469,231918,36681
1020011,-113931,-108035,36910,313417,165039,-114251,226040,-118538,-114304,66439,231882,36677
1020012,-113976,-108073,36942,313430,165125,-114299,226020,-118613,-114352,66376,231888,36706
1020013,-113992,-108098,36965,313398,165108,-114313,225988,-118649,-114366,66354,231784,36728
1020014,-113978,-108099,36965,313401,165037,-114338,225949,-118675,-114390,66359,231571,36731
1020015,-113961,-108097,36975,313366,164905,-114328,225940,-118663,-114384,66341,231499,36737
1020016,-114009,-108110,36963,313239,164757,-114319,225995,-118639,-114370,66332,231397,36731
1020017,-114033,-108098,36966,313199,164630,-114321,225992,-118635,-114371,66329,231345,36732
1020018,-114051,-108111,36942,313181,164620,-114327,225968,-118623,-114380,66307,231338,36708
1020019,-114049,-108106,36951,313150,164635,-114380,225964,-118639,-114433,66227,231350,36715
1020020,-114024,-108089,36957,313193,164563,-114420,225959,-118629,-114472,66226,231438,36723
1020021,-114014,-108081,36931,313243,164468,-114407,225920,-118608,-114461,66258,231583,36697
1020022,-114002,-108094,36896,313230,164497,-114362,225930,-118590,-114415,66314,231670,36660
1020023,-113985,-108094,36842,313099,164600,-114290,226020,-118553,-114344,66339,231752,36610
1020024,-113968,-108089,36807,313052,164686,-114260,226125,-118542,-114313,66378,231829,36571
1020025,-113937,-108064,36814,313128,164692,-114260,226156,-118560,-114312,66375,231852,36579
1020026,-113900,-108014,36864,313215,164662,-114225,226165,-118524,-114278,66436,231880,36625
1020027,-113907,-108009,36924,313196,164697,-114197,226197,-118528,-114246,66515,231936,36691
1020028,-113875,-107990,37006,313248,164818,-114161,226140,-118510,-114213,66534,231931,36773
1020029,-113840,-107973,37020,313328,164884,-114145,226072,-118505,-114201,66532,231892,36785
1020030,-113828,-107983,37046,313376,164912,-114177,226056,-118511,-114229,66493,231900,36813
1020031,-113833,-107977,37029,313370,164892,-114225,226137,-118513,-114279,66430,231813,36793
1020032,-113830,-108012,36953,313302,164896,-114225,226197,-118510,-114276,66427,231668,36715
1020033,-113847,-108032,36932,313284,164822,-114235,226238,-118532,-114289,66350,231487,36697
1020034,-113863,-108036,36933,313279,164768,-114246,226230,-118535,-114299,66266,231280,36699
1020035,-113876,-108060,36911,313224,164771,-114259,226158,-118570,-114312,66254,231291,36675
1020036,-113922,-108095,36880,313168,164758,-114314,226035,-118616,-114367,66211,231407,36649
1020037,-113974,-108115,36858,313162,164743,-114336,226029,-118641,-114389,66196,231454,36623
1020038,-114016,-108121,36883,313184,164733,-114370,225991,-118638,-114426,66205,231374,36649
1020039,-114033,-108128,36894,313190,164668,-114383,225949,-118649,-114437,66245,231397,36661
1020040,-114024,-108126,36883,313174,164605,-114386,225980,-118638,-114438,66265,231478,36651
1020041,-113991,-108125,36871,313141,164624,-114374,226102,-118629,-114430,66271,231441,36635
1020042,-113957,-108122,36878,313146,164604,-114330,226174,-118628,-114387,66291,231385,36641
1020043,-113914,-108091,36919,313228,164478,-114308,226213,-118616,-114359,66291,231428,36683
1020044,-113898,-108065,36938,313268,164434,-114254,226218,-118598,-114308,66329,231510,36702
1020045,-113906,-108076,36904,313212,164531,-114238,226199,-118573,-114292,66367,231703,36669
1020046,-113894,-108072,36910,313165,164692,-114244,226198,-118580,-114300,66400,231990,36675
1020047,-113863,-108057,36911,313142,164707,-114213,226239,-118543,-114268,66457,232027,36677
1020048,-113846,-108046,36911,313188,164799,-114194,226261,-118525,-114247,66493,232066,36678
1020049,-113824,-108026,36925,313261,164861,-114191,226298,-118525,-114248,66463,232018,36687
1020050,-113800,-108023,36906,313254,164805,-114189,226345,-118502,-114243,66442,231993,36673
1020051,-113809,-108019,36875,313276,164717,-114199,226321,-118502,-114253,66435,231956,36640
1020052,-113811,-108017,36844,313281,164633,-114233,226249,-118494,-114287,66395,231893,36608
1020053,-113827,-108029,36846,313257,164587,-114270,226163,-118517,-114324,66369,231801,36612
1020054,-113871,-108039,36855,313190,164527,-114294,226124,-118520,-114346,66341,231641,36617
1020055,-113926,-108057,36854,313141,164505,-114280,226073,-118517,-114334,66353,231549,36621
1020056,-113952,-108078,36824,313075,164447,-114296,226036,-118534,-114350,66318,231496,36588
1020057,-113971,-108075,36813,313026,164417,-114277,226035,-118544,-114331,66270,231412,36580
1020058,-113967,-108083,36776,312961,164408,-114284,225983,-118550,-114336,66230,231440,36543
1020059,-113988,-108098,36766,313022,164437,-114299,225963,-118570,-114351,66170,231511,36533
1020060,-113980,-108101,36730,313081,164478,-114324,226005,-118609,-114377,66132,231521,36496
1020061,-113955,-108099,36739,313109,164439,-114352,226058,-118602,-114408,66115,231539,36503
1020062,-113948,-108080,36768,313105,164516,-114361,226060,-118579,-114412,66149,231496,36535
1020063,-113917,-108061,36821,313161,164608,-114365,226104,-118545,-114418,66183,231345,36588
1020064,-113887,-108037,36831,313208,164710,-114353,226099,-118545,-114405,66201,231342,36599
1020065,-113888,-108048,36833,313246,164795,-114337,226059,-118527,-114389,66202,231470,36598
1020066,-113883,-108032,36834,313252,164896,-114262,226053,-118503,-114312,66248,231581,36602
