Timestamp (ms),Ch0 (uV),Ch1 (uV),Ch2 (uV),Ch3 (uV),Ch4 (uV),Ch5 (uV),Ch6 (uV),Ch7 (uV),Ch8 (uV),Ch9 (uV),Ch10 (uV),Ch11 (uV)
1010652,-114421,-107240,37984,315139,164358,-115472,227224,-119479,-115524,65107,231197,37748
1010653,-114450,-107254,37953,315118,164140,-115462,227157,-119497,-115513,65078,231291,37720
1010654,-114495,-107280,37888,315084,163978,-115497,227066,-119526,-115549,65048,231432,37652
1010655,-114537,-107309,37799,314994,163927,-115495,227032,-119557,-115549,65081,231561,37565
1010656,-114584,-107349,37738,314929,164074,-115549,226917,-119590,-115605,65006,231629,37503
1010657,-114640,-107374,37684,314936,164222,-115556,226866,-119588,-115610,64967,231572,37450
1010658,-114686,-107410,37695,314905,164320,-115551,226814,-119596,-115603,64957,231477,37460
1010659,-114702,-107422,37726,314819,164321,-115544,226851,-119566,-115597,64986,231384,37493
1010667,-114485,-107334,37776,315164,164660,-115425,227047,-119489,-115479,65065,231695,37543
1010668,-114446,-107316,37801,315103,164622,-115418,227112,-119472,-115474,65199,231764,37562
1010669,-114403,-107301,37834,315052,164569,-115418,227081,-119468,-115472,65264,231775,37601
1010670,-114387,-107287,37893,315029,164510,-115367,227056,-119455,-115421,65326,231645,37658
1010671,-114396,-107310,37913,315043,164544,-115404,227040,-119445,-115457,65279,231611,37681
1010672,-114431,-107330,37942,315044,164546,-115438,226953,-119463,-115491,65236,231534,37710
1010673,-114470,-107347,37899,315002,164484,-115454,226919,-119467,-115509,65215,231441,37664
1010674,-114515,-107373,37825,314964,164368,-115479,226929,-119467,-115531,65193,231419,37591
1010675,-114541,-107395,37781,314978,164223,-115513,226981,-119526,-115568,65170,231496,37550
1010676,-114593,-107426,37741,314924,164147,-115531,226973,-119535,-115581,65102,231555,37510
1010677,-114620,-107432,37751,314875,164139,-115488,227012,-119519,-115539,65068,231465,37517
1010678,-114649,-107415,37792,314881,164161,-115472,226952,-119522,-115522,65002,231294,37558
1010679,-114631,-107406,37806,314899,164143,-115416,226830,-119490,-115472,64986,231248,37572
1010680,-114630,-107380,37798,314983,164043,-115394,226730,-119497,-115446,65046,231385,37564
1010681,-114668,-107422,37770,314938,164049,-115449,226765,-119464,-115501,65110,231625,37536
1010682,-114674,-107436,37711,314884,164284,-115543,226794,-119476,-115596,65152,231782,37477
1010683,-114642,-107426,37709,314926,164410,-115565,226817,-119454,-115617,65155,231819,37474
1010684,-114593,-107397,37724,314970,164421,-115539,226895,-119430,-115591,65147,231875,37491
1010685,-114566,-107408,37750,314983,164451,-115501,226994,-119465,-115554,65205,231872,37516
1010686,-114546,-107400,37775,314999,164538,-115422,227094,-119469,-115475,65259,231939,37543
1010687,-114488,-107358,37854,315149,164650,-115382,227127,-119493,-115435,65140,231863,37618
1010688,-114451,-107343,37925,315240,164846,-115371,227118,-119515,-115425,65065,231804,37691
1010689,-114411,-107325,37952,315228,164926,-115348,227128,-119489,-115399,65088,231714,37720
1010690,-114388,-107311,37979,315275,164916,-115357,227122,-119493,-115411,65115,231584,37742
1010691,-114420,-107306,38003,315300,164918,-115406,227038,-119522,-115460,65191,231567,37771
1010692,-114490,-107320,38002,315281,164854,-115430,226954,-119509,-115481,65211,231514,37766
1010693,-114525,-107325,37989,315256,164795,-115476,226982,-119546,-115526,65160,231419,37753
1010694,-114557,-107315,37996,315275,164741,-115515,226981,-119587,-115571,65093,231315,37761
1010695,-114579,-107311,38009,315290,164719,-115532,226922,-119593,-115587,64998,231287,37773
1010696,-114575,-107300,37990,315241,164643,-115589,226882,-119613,-115643,64949,231304,37757
1010697,-114545,-107309,37971,315135,164557,-115619,226892,-119608,-115674,64954,231344,37735
1010698,-114555,-107322,37881,315086,164453,-115642,226915,-119624,-115695,64958,231487,37648
1010699,-114566,-107322,37799,315080,164356,-115662,226885,-119625,-115714,64966,231702,37565
1010700,-114569,-107342,37765,315039,164247,-115633,226909,-119596,-115688,65118,231835,37531
1010701,-114562,-107365,37782,315006,164283,-115603,226940,-119591,-115657,65205,231778,37549
1010702,-114562,-107336,37849,315086,164413,-115582,226961,-119592,-115637,65251,231646,37614
1010703,-114537,-107321,37913,315139,164532,-115569,226981,-119596,-115620,65212,231659,37679
1010704,-114493,-107291,37949,315218,164563,-115531,227052,-119591,-115587,65123,231747,37713
1010705,-114442,-107283,38018,315310,164603,-115527,227091,-119575,-115583,65144,231614,37780
1010706,-114392,-107253,38101,315408,164693,-115494,227154,-119519,-115546,65207,231509,37867
1010707,-114403,-107216,38164,315437,164784,-115463,227154,-119510,-115517,65215,231620,37928
1010708,-114420,-107190,38171,315482,164794,-115419,227139,-119490,-115472,65233,231795,37938
1010709,-114388,-107156,38211,315556,164724,-115448,227127,-119453,-115499,65276,231762,37976
1010710,-114358,-107110,38248,315648,164757,-115460,227146,-119431,-115511,65310,231472,38012
1010711,-114346,-107087,38277,315657,164678,-115457,227183,-119422,-115510,65314,231310,38040
1010712,-114370,-107118,38238,315535,164542,-115491,227147,-119473,-115543,65258,231617,38004
1010713,-114439,-107163,38184,315450,164530,-115513,227100,-119507,-115566,65168,231805,37950
1010714,-114465,-107201,38107,315400,164631,-115526,227037,-119546,-115580,65163,231784,37871
1010715,-114475,-107220,38068,315339,164680,-115546,227068,-119547,-115602,65152,231725,37831
1010716,-114489,-107236,38072,315271,164577,-115577,227053,-119557,-115631,65105,231786,37837
1010717,-114514,-107246,38053,315138,164532,-115538,226956,-119558,-115593,65123,231927,37816
1010718,-114539,-107266,38064,315063,164595,-115553,226849,-119602,-115605,65147,232007,37828
1010719,-114541,-107274,38062,315084,164622,-115532,226830,-119615,-115587,65202,231955,37826
1010720,-114550,-107260,38097,315161,164496,-115497,226882,-119576,-115550,65234,231882,37861
1010721,-114546,-107234,38129,315263,164393,-115479,226897,-119560,-115531,65221,231926,37895
1010722,-114523,-107222,38132,315269,164507,-115428,226945,-119518,-115481,65216,231887,37897
1010723,-114439,-107202,38136,315260,164627,-115425,227040,-119481,-115475,65212,231876,37900
1010724,-114383,-107200,38155,315310,164653,-115448,227144,-119448,-115500,65283,231828,37920
1010725,-114331,-107172,38181,315431,164749,-115445,227186,-119432,-115496,65289,231679,37950
1010726,-114290,-107146,38212,315546,164966,-115462,227170,-119428,-115516,65314,231655,37977
1010727,-114290,-107147,38209,315513,165104,-115441,227196,-119410,-115492,65320,231779,37972
1010728,-114231,-107108,38242,315540,165097,-115422,227254,-119406,-115476,65260,231939,38010
1010729,-114206,-107080,38253,315589,165109,-115402,227218,-119427,-115454,65209,232024,38015
1010730,-114195,-107069,38256,315614,165207,-115436,227153,-119464,-115490,65186,232086,38020
1010731,-114221,-107098,38246,315619,165252,-115452,227096,-119445,-115506,65257,231969,38009
1010732,-114282,-107117,38198,315597,165166,-115453,227094,-119444,-115506,65340,231875,37962
1010733,-114339,-107136,38173,315576,165081,-115466,227128,-119490,-115520,65358,231800,37936
1010734,-114364,-107163,38159,315486,164957,-115429,227093,-119480,-115481,65402,231711,37924
1010735,-114381,-107189,38140,315377,164821,-115371,227041,-119476,-115423,65444,231760,37906
1010736,-114372,-107207,38086,315346,164766,-115390,227041,-119503,-115444,65353,231772,37851
1010737,-114392,-107210,38054,315316,164769,-115410,227047,-119517,-115463,65310,231781,37818
1010738,-114437,-107240,38012,315300,164731,-115438,227006,-119531,-115494,65308,231884,37775
1010739,-114463,-107241,38033,315346,164731,-115463,226942,-119548,-115517,65279,232006,37801
1010740,-114442,-107214,38084,315407,164685,-115472,226909,-119543,-115523,65265,231991,37852
1010741,-114408,-107168,38130,315430,164551,-115404,226942,-119470,-115459,65343,231918,37894
1010742,-114378,-107133,38154,315422,164431,-115387,227019,-119396,-115439,65429,231924,37920
1010743,-114354,-107092,38163,315435,164433,-115401,227109,-119366,-115457,65408,231972,37928
1010744,-114321,-107060,38211,315435,164480,-115379,227216,-119326,-115433,65448,231906,37974
1010745,-114307,-107067,38256,315450,164603,-115343,227296,-119308,-115396,65492,231758,38020
1010746,-114292,-107060,38304,315553,164746,-115287,227399,-119284,-115343,65520,231688,38065
1010747,-114259,-107073,38331,315586,164770,-115242,227410,-119282,-115296,65528,231823,38095
1010748,-114193,-107079,38315,315558,164892,-115237,227398,-119267,-115292,65478,232047,38080
1010749,-114193,-107066,38322,315554,165008,-115224,227358,-119261,-115280,65498,232130,38083
1010750,-114186,-107064,38282,315633,165030,-115231,227326,-119271,-115283,65524,232102,38049
1010751,-114186,-107058,38290,315684,165110,-115256,227259,-119269,-115308,65529,231938,38052
1010752,-114204,-107085,38244,315638,165191,-115277,227171,-119308,-115332,65521,231894,38003
1010753,-114284,-107108,38174,315566,165255,-115302,227175,-119329,-115353,65402,231934,37940
1010754,-114331,-107125,38142,315571,165285,-115356,227179,-119355,-115408,65363,231835,37907
1010755,-114352,-107154,38129,315542,165206,-115364,227198,-119366,-115417,65378,231843,37896
1010756,-114370,-107189,38123,315469,165117,-115383,227245,-119367,-115436,65321,231819,37889
1010757,-114377,-107192,38120,315443,165054,-115379,227289,-119380,-115429,65298,231777,37885
1010758,-114427,-107184,38120,315469,164934,-115377,227273,-119397,-115432,65272,231904,37885
1010759,-114439,-107187,38111,315469,164783,-115373,227246,-119364,-115426,65300,232022,37876
1010760,-114374,-107150,38186,315506,164761,-115355,227218,-119341,-115405,65282,231987,37952
1010761,-114348,-107129,38194,315475,164817,-115321,227199,-119297,-115374,65338,231983,37960
1010762,-114310,-107088,38252,315558,164919,-115284,227174,-119258,-115336,65361,231936,38018
1010763,-114257,-107047,38284,315599,164866,-115247,227177,-119224,-115299,65409,232030,38049
1010764,-114195,-107024,38318,315563,164719,-115196,227267,-119181,-115248,65496,232204,38084
1010765,-114151,-107011,38323,315541,164627,-115109,227334,-119125,-115162,65610,232218,38086
1010766,-114111,-106976,38328,315595,164730,-115056,227370,-119087,-115112,65740,232226,38095
1010767,-114062,-106942,38329,315563,164849,-115056,227432,-119050,-115107,65736,232285,38095
1010768,-114026,-106912,38331,315598,164964,-115079,227457,-119025,-115132,65763,232343,38096
1010769,-114011,-106892,38356,315626,164950,-115077,227466,-118998,-115132,65830,232274,38118
1010770,-114033,-106891,38343,315613,164942,-115058,227480,-119011,-115113,65849,232266,38108
1010771,-114062,-106896,38392,315674,164968,-115027,227484,-119031,-115083,65806,232065,38154
1010772,-114096,-106910,38431,315627,165057,-115040,227478,-119050,-115094,65718,231872,38197
1010773,-114153,-106913,38410,315590,165126,-115131,227379,-119103,-115184,65618,231933,38175
1010774,-114202,-106934,38356,315590,165062,-115140,227299,-119160,-115192,65568,231914,38121
1010775,-114235,-106958,38351,315543,165054,-115129,227265,-119153,-115187,65566,231814,38115
1010776,-114305,-106996,38302,315471,165057,-115138,227233,-119181,-115191,65521,231945,38071
1010777,-114362,-107020,38301,315474,165120,-115157,227164,-119248,-115209,65507,232003,38065
1010778,-114423,-107060,38248,315460,165112,-115185,227103,-119295,-115234,65505,232141,38013
1010779,-114411,-107075,38236,315501,165107,-115209,227019,-119313,-115261,65467,232166,38003
1010780,-114365,-107029,38249,315541,165091,-115215,227017,-119301,-115268,65469,232041,38012
1010781,-114351,-107005,38279,315524,165054,-115163,227057,-119243,-115215,65498,231924,38042
1010782,-114316,-106966,38325,315458,165029,-115134,227048,-119187,-115185,65538,231925,38089
1010783,-114285,-106940,38328,315434,165060,-115110,227121,-119173,-115161,65508,231998,38093
1010784,-114284,-106933,38350,315488,165066,-115124,227177,-119193,-115177,65527,232121,38115
1010785,-114296,-106918,38349,315585,165041,-115154,227259,-119222,-115211,65582,232144,38114
1010786,-114238,-106863,38387,315700,165035,-115140,227310,-119202,-115194,65606,232076,38151
1010787,-114178,-106857,38400,315707,164873,-115097,227372,-119140,-115151,65677,232119,38167
1010788,-114153,-106852,38418,315728,164812,-115100,227392,-119087,-115154,65706,232218,38183
1010789,-114125,-106836,38418,315698,164802,-115113,227492,-119068,-115165,65655,232235,38183
1010790,-114098,-106852,38393,315687,164788,-115094,227561,-119044,-115147,65634,232073,38160
1010791,-114107,-106863,38414,315717,164781,-115089,227534,-119071,-115142,65592,231934,38179
1010792,-114142,-106897,38371,315747,164811,-115107,227450,-119144,-115160,65498,231961,38137
1010793,-114195,-106892,38350,315758,164753,-115097,227361,-119202,-115148,65428,231952,38116
1010794,-114216,-106903,38298,315639,164724,-115107,227308,-119215,-115162,65368,231919,38065
1010795,-114232,-106915,38207,315457,164808,-115121,227254,-119219,-115171,65394,231933,37971
1010796,-114261,-106930,38126,315403,164905,-115152,227156,-119257,-115209,65398,231834,37890
1010797,-114272,-106921,38084,315470,164896,-115193,227088,-119286,-115246,65346,231773,37853
1010798,-114285,-106933,38089,315514,164846,-115216,227054,-119305,-115268,65286,231716,37853
1010799,-114302,-106962,38164,315591,164693,-115225,227034,-119314,-115280,65315,231673,37932
1010800,-114325,-106975,38213,315533,164657,-115231,227054,-119308,-115282,65380,231754,37977
1010801,-114330,-106973,38236,315465,164569,-115201,227078,-119297,-115256,65449,231858,38000
1010802,-114310,-106970,38294,315401,164541,-115182,227131,-119268,-115235,65489,231910,38060
1010803,-114288,-106968,38309,315392,164584,-115181,227165,-119237,-115234,65467,232004,38075
1010804,-114265,-106952,38329,315406,164813,-115196,227183,-119229,-115247,65428,231972,38093
1010805,-114266,-106933,38347,315426,164988,-115244,227187,-119230,-115296,65389,231972,38112
1010806,-114251,-106915,38326,315474,165170,-115231,227181,-119221,-115281,65421,232062,38092
1010807,-114225,-106876,38363,315592,165212,-115189,227180,-119212,-115242,65446,232004,38131
1010808,-114179,-106827,38431,315645,165073,-115147,227265,-119169,-115201,65479,231863,38196
1010809,-114135,-106793,38506,315657,164913,-115134,227336,-119138,-115188,65507,231763,38269
1010810,-114144,-106803,38520,315669,164894,-115146,227375,-119141,-115199,65488,231718,38285
1010811,-114169,-106821,38466,315635,164976,-115167,227339,-119168,-115222,65377,231729,38231
1010812,-114219,-106856,38385,315578,165030,-115187,227283,-119204,-115239,65353,231741,38149
1010813,-114260,-106900,38300,315430,165012,-115193,227215,-119257,-115250,65389,231833,38062
1010814,-114300,-106928,38244,315359,164995,-115196,227158,-119283,-115252,65404,231725,38010
1010815,-114331,-106937,38222,315359,164976,-115237,227122,-119320,-115292,65352,231701,37984
1010816,-114327,-106982,38202,315347,164892,-115304,227037,-119390,-115357,65299,231815,37967
1010817,-114356,-106998,38178,315370,164813,-115343,227009,-119419,-115397,65300,231847,37941
1010818,-114385,-107045,38190,315348,164704,-115342,226999,-119423,-115395,65315,231826,37954
1010819,-114381,-107052,38180,315305,164602,-115332,227035,-119413,-115383,65308,231772,37944
1010820,-114352,-107014,38219,315282,164489,-115281,227088,-119366,-115336,65308,231698,37984
1010821,-114331,-107009,38225,315293,164557,-115268,227093,-119344,-115323,65296,231583,37990
1010822,-114312,-107008,38201,315262,164690,-115277,227071,-119352,-115329,65333,231671,37966
1010823,-114312,-106992,38210,315311,164681,-115258,227049,-119338,-115310,65381,231726,37978
1010824,-114290,-106970,38213,315423,164691,-115239,227039,-119325,-115292,65373,231775,37982
1010825,-114305,-106960,38195,315457,164802,-115240,227116,-119318,-115294,65365,231761,37961
1010826,-114300,-106939,38228,315502,164873,-115242,227120,-119288,-115295,65380,231844,37994
1010827,-114291,-106924,38224,315485,164858,-115214,227167,-119276,-115268,65371,232009,37989
1010828,-114228,-106908,38232,315527,164797,-115175,227224,-119242,-115225,65412,231964,37997
1010829,-114182,-106900,38249,315555,164821,-115211,227213,-119180,-115264,65476,231851,38015
1010830,-114201,-106900,38247,315532,164845,-115280,227175,-119163,-115333,65505,231856,38013
1010831,-114275,-106931,38217,315442,164814,-115314,227163,-119174,-115365,65492,231996,37982
1010832,-114291,-106968,38183,315392,164791,-115327,227125,-119203,-115381,65426,231999,37949
1010833,-114299,-106993,38171,315413,164708,-115351,227031,-119256,-115405,65390,231925,37937
1010834,-114292,-107013,38163,315433,164582,-115363,227028,-119321,-115414,65332,231786,37932
1010835,-114284,-107018,38149,315356,164498,-115347,227090,-119360,-115399,65289,231648,37915
1010836,-114293,-107038,38075,315249,164546,-115328,227112,-119388,-115379,65239,231480,37842
1010837,-114331,-107065,38008,315219,164608,-115319,227088,-119407,-115373,65191,231509,37773
1010838,-114431,-107103,37931,315179,164544,-115331,227051,-119426,-115382,65186,231694,37698
1010839,-114479,-107116,37902,315156,164483,-115322,227080,-119442,-115373,65228,231726,37668
1010840,-114449,-107122,37912,315089,164551,-115362,227177,-119437,-115415,65180,231735,37680
1010841,-114451,-107113,37939,315065,164590,-115385,227201,-119445,-115436,65190,231742,37704
1010842,-114447,-107114,37964,315109,164583,-115365,227224,-119431,-115419,65232,231741,37728
1010843,-114429,-107117,38001,315107,164629,-115341,227266,-119397,-115394,65214,231764,37768
1010844,-114367,-107096,38082,315195,164577,-115310,227273,-119370,-115363,65205,231745,37847
1010845,-114313,-107063,38149,315281,164506,-115309,227278,-119375,-115360,65202,231729,37916
1010846,-114279,-107039,38196,315266,164504,-115278,227337,-119318,-115332,65305,231713,37962
1010847,-114239,-107041,38179,315194,164598,-115283,227359,-119298,-115336,65397,231800,37944
1010848,-114237,-107035,38148,315178,164740,-115315,227368,-119302,-115370,65385,231998,37913
1010849,-114222,-107055,38072,315139,164786,-115335,227392,-119291,-115388,65459,232070,37838
1010850,-114226,-107064,38026,315180,164806,-115318,227379,-119274,-115374,65519,231998,37791
1010851,-114250,-107081,38008,315250,164806,-115318,227316,-119298,-115373,65519,231888,37776
1010852,-114295,-107114,38005,315272,164840,-115321,227232,-119332,-115375,65473,231807,37769
1010853,-114333,-107141,38009,315247,164766,-115337,227175,-119377,-115392,65400,231785,37778
1010854,-114364,-107157,37974,315225,164711,-115339,227133,-119398,-115391,65335,231679,37739
1010855,-114377,-107173,37933,315197,164554,-115314,227137,-119370,-115368,65356,231645,37700
1010856,-114414,-107200,37910,315181,164488,-115343,227097,-119405,-115396,65277,231698,37678
1010857,-114420,-107205,37923,315181,164455,-115360,227056,-119444,-115414,65242,231649,37687
1010858,-114446,-107238,37899,315114,164419,-115382,227012,-119443,-115432,65252,231656,37668
1010859,-114444,-107259,37913,315097,164431,-115376,226930,-119436,-115432,65268,231667,37679
1010860,-114454,-107263,37925,315086,164513,-115353,226904,-119407,-115405,65302,231578,37690
1010861,-114449,-107241,37924,315124,164548,-115315,226923,-119353,-115370,65308,231508,37689
1010862,-114434,-107229,37937,315176,164573,-115339,226998,-119361,-115389,65249,231596,37702
1010863,-114437,-107238,37954,315164,164609,-115327,227070,-119364,-115380,65205,231729,37719
1010864,-114410,-107214,37989,315194,164606,-115268,227210,-119296,-115323,65275,231627,37751
1010865,-114395,-107203,38022,315203,164590,-115236,227305,-119285,-115290,65311,231546,37789
1010866,-114374,-107201,38027,315215,164701,-115231,227354,-119271,-115284,65333,231746,37792
1010867,-114337,-107197,37990,315222,164690,-115218,227395,-119261,-115270,65323,231896,37754
1010868,-114312,-107184,37969,315316,164613,-115181,227410,-119215,-115234,65365,231993,37731
1010869,-114303,-107200,37966,315317,164629,-115184,227373,-119193,-115233,65423,232137,37736
1010870,-114328,-107206,37979,315328,164581,-115197,227307,-119199,-115247,65467,232200,37747
1010871,-114405,-107238,37971,315253,164520,-115183,227353,-119205,-115234,65529,232200,37736
1010872,-114473,-107256,37968,315175,164541,-115188,227381,-119216,-115242,65510,232138,37731
1010873,-114501,-107277,37924,315099,164526,-115187,227336,-119255,-115240,65497,232082,37691
1010874,-114501,-107289,37866,315101,164473,-115208,227287,-119270,-115262,65491,231928,37630
1010875,-114480,-107283,37863,315104,164484,-115253,227272,-119258,-115306,65469,231681,37630
1010876,-114455,-107306,37803,315114,164498,-115321,227237,-119272,-115374,65413,231559,37567
1010877,-114451,-107314,37739,315102,164474,-115330,227178,-119284,-115385,65378,231613,37503
1010878,-114490,-107362,37701,315027,164402,-115349,227156,-119332,-115399,65376,231796,37468
1010879,-114535,-107374,37726,314990,164404,-115370,227143,-119332,-115420,65335,231907,37493
1010880,-114549,-107371,37738,314964,164495,-115388,227135,-119321,-115436,65346,231931,37505
1010881,-114524,-107349,37764,315043,164561,-115357,227146,-119327,-115409,65358,231862,37532
1010882,-114493,-107328,37823,315105,164510,-115283,227182,-119307,-115334,65391,231750,37589
1010883,-114445,-107307,37887,315104,164577,-115242,227196,-119283,-115294,65346,231804,37657
1010884,-114429,-107299,37902,315133,164679,-115156,227158,-119298,-115211,65334,231918,37670
1010885,-114381,-107293,37910,315189,164706,-115113,227124,-119264,-115166,65329,231916,37676
1010886,-114308,-107288,37946,315282,164723,-115105,227109,-119221,-115156,65430,231930,37709
1010887,-114302,-107249,37964,315374,164753,-115118,227158,-119190,-115174,65534,231843,37727
1010888,-114260,-107188,37961,315432,164724,-115097,227301,-119161,-115149,65596,231664,37726
1010889,-114250,-107154,37922,315385,164763,-115103,227432,-119125,-115157,65593,231609,37690
1010890,-114237,-107162,37866,315275,164868,-115079,227416,-119122,-115132,65544,231694,37632
1010891,-114240,-107153,37859,315250,164912,-115133,227348,-119189,-115184,65461,231815,37626
1010892,-114261,-107153,37874,315220,164727,-115150,227394,-119215,-115203,65452,231705,37640
1010893,-114296,-107167,37921,315194,164546,-115174,227427,-119238,-115229,65447,231551,37689
1010894,-114383,-107214,37934,315126,164484,-115202,227337,-119304,-115255,65388,231722,37702
1010895,-114450,-107250,37944,315071,164502,-115204,227225,-119352,-115259,65340,231974,37711
1010896,-114489,-107275,37963,315057,164497,-115214,227167,-119363,-115268,65399,231760,37728
1010897,-114521,-107312,37944,314984,164535,-115208,227133,-119358,-115265,65449,231643,37712
1010898,-114527,-107317,37926,314993,164564,-115226,227093,-119364,-115279,65343,231674,37692
1010899,-114532,-107305,37932,315092,164542,-115209,227054,-119373,-115264,65226,231649,37696
1010900,-114545,-107311,37946,315135,164557,-115183,227000,-119371,-115236,65231,231750,37713
1010901,-114521,-107284,37953,315130,164630,-115169,226918,-119354,-115221,65240,231822,37719
1010902,-114498,-107260,37959,315207,164654,-115149,226942,-119323,-115201,65277,231766,37724
1010903,-114488,-107228,37981,315315,164709,-115178,226990,-119331,-115232,65336,231732,37750
1010904,-114430,-107201,37984,315361,164707,-115180,227095,-119317,-115233,65398,231705,37751
1010905,-114400,-107182,38013,315386,164631,-115159,227224,-119314,-115211,65405,231744,37778
1010906,-114364,-107164,38030,315400,164657,-115152,227325,-119311,-115207,65408,231929,37798
1010907,-114347,-107154,38077,315429,164730,-115157,227364,-119317,-115208,65415,232025,37841
1010908,-114327,-107139,38120,315389,164858,-115165,227395,-119315,-115216,65447,232069,37887
1010909,-114325,-107133,38143,315398,164852,-115115,227389,-119289,-115168,65532,232051,37910
1010910,-114324,-107135,38169,315430,164789,-115118,227335,-119280,-115168,65588,232042,37935
1010911,-114334,-107134,38157,315390,164716,-115115,227308,-119293,-115166,65594,232045,37924
1010912,-114349,-107142,38139,315315,164542,-115144,227341,-119316,-115197,65572,232064,37906
1010913,-114389,-107137,38127,315279,164433,-115180,227302,-119326,-115233,65537,232023,37894
1010914,-114429,-107173,38083,315156,164403,-115181,227305,-119322,-115234,65541,231927,37848
1010915,-114455,-107191,38024,315102,164485,-115196,227245,-119337,-115251,65525,231896,37787
1010916,-114451,-107203,37959,315048,164517,-115217,227189,-119348,-115268,65453,231837,37724
1010917,-114464,-107182,37919,315086,164439,-115261,227192,-119329,-115315,65405,231804,37682
1010918,-114505,-107218,37837,315238,164449,-115328,227102,-119342,-115379,65402,231779,37605
1010919,-114554,-107227,37835,315305,164521,-115326,227069,-119308,-115375,65425,231629,37602
1010920,-114604,-107215,37915,315285,164535,-115337,227091,-119298,-115390,65447,231612,37683
1010921,-114611,-107174,38012,315236,164614,-115368,227097,-119306,-115419,65398,231650,37778
1010922,-114581,-107181,38057,315195,164734,-115385,227112,-119324,-115438,65333,231798,37825
1010923,-114520,-107179,38033,315212,164842,-115356,227180,-119318,-115411,65308,231809,37800
1010924,-114475,-107182,38059,315309,164901,-115343,227203,-119332,-115395,65307,231837,37823
1010925,-114458,-107175,38099,315355,164927,-115306,227165,-119316,-115358,65327,231850,37865
1010926,-114386,-107148,38167,315436,164940,-115230,227162,-119265,-115279,65394,231764,37932
1010927,-114332,-107135,38176,315536,164920,-115161,227234,-119251,-115212,65410,231629,37941
1010928,-114284,-107123,38134,315530,164934,-115100,227330,-119241,-115153,65527,231550,37901
1010929,-114282,-107137,38128,315454,164895,-115125,227341,-119251,-115179,65617,231719,37894
1010930,-114296,-107146,38109,315378,164791,-115124,227331,-119270,-115175,65652,231873,37876
1010931,-114330,-107162,38080,315275,164695,-115125,227354,-119287,-115179,65608,232009,37845
1010932,-114364,-107188,38052,315207,164631,-115151,227320,-119319,-115205,65518,232100,37817
1010933,-114402,-107217,37969,315160,164616,-115197,227253,-119355,-115252,65476,232109,37735
1010934,-114435,-107232,37879,315129,164545,-115228,227225,-119362,-115280,65442,232049,37645
1010935,-114444,-107246,37860,315083,164508,-115262,227209,-119371,-115314,65400,232036,37626
1010936,-114492,-107265,37865,315113,164303,-115275,227172,-119371,-115327,65349,231993,37634
1010937,-114532,-107279,37921,315066,164250,-115280,227141,-119360,-115331,65358,231906,37686
1010938,-114543,-107298,37904,314996,164291,-115289,227057,-119353,-115341,65379,231857,37671
1010939,-114558,-107311,37907,315043,164405,-115308,226959,-119375,-115361,65329,231818,37671
1010940,-114582,-107325,37914,315123,164545,-115318,226967,-119369,-115371,65313,231711,37680
1010941,-114591,-107326,37873,315132,164601,-115309,227043,-119352,-115362,65353,231608,37639
1010942,-114592,-107342,37859,315122,164657,-115331,227084,-119346,-115385,65387,231676,37626
1010943,-114546,-107312,37878,315189,164744,-115338,227059,-119357,-115390,65349,231726,37644
1010944,-114501,-107267,37886,315253,164792,-115300,227128,-119310,-115354,65307,231582,37651
1010945,-114442,-107229,37882,315313,164828,-115273,227158,-119285,-115323,65281,231454,37646
1010946,-114420,-107209,37913,315333,164798,-115227,227186,-119261,-115283,65336,231511,37676
1010947,-114423,-107197,37961,315316,164741,-115214,227276,-119230,-115264,65394,231583,37726
1010948,-114418,-107179,37996,315311,164760,-115158,227307,-119187,-115214,65472,231473,37760
1010949,-114421,-107195,38008,315319,164746,-115165,227333,-119184,-115216,65463,231509,37773
1010950,-114423,-107185,38036,315234,164716,-115187,227277,-119159,-115241,65412,231645,37803
1010951,-114442,-107218,38038,315162,164644,-115281,227347,-119202,-115335,65367,231760,37803
1010952,-114464,-107238,37998,315209,164486,-115409,227358,-119255,-115464,65345,231819,37763
1010953,-114510,-107284,37915,315251,164417,-115469,227283,-119296,-115523,65335,231879,37682
1010954,-114557,-107311,37819,315107,164383,-115472,227248,-119310,-115526,65367,231846,37582
1010955,-114570,-107333,37794,315092,164232,-115419,227235,-119353,-115473,65386,231751,37556
1010956,-114592,-107352,37787,315018,164093,-115371,227212,-119388,-115427,65321,231732,37554
1010957,-114601,-107359,37796,314864,164092,-115357,227147,-119404,-115408,65281,231798,37562
1010958,-114629,-107389,37783,314748,164080,-115365,227061,-119414,-115419,65284,231931,37547
1010959,-114640,-107437,37767,314790,164117,-115368,226983,-119416,-115420,65266,231963,37533
1010960,-114640,-107454,37735,314868,164252,-115368,226907,-119411,-115421,65240,231956,37500
1010961,-114603,-107430,37754,314966,164278,-115336,226818,-119403,-115389,65264,231831,37516
1010962,-114574,-107415,37759,315027,164403,-115329,226836,-119366,-115381,65265,231685,37527
1010963,-114570,-107412,37801,315104,164598,-115324,226928,-119350,-115380,65222,231500,37564
1010964,-114567,-107409,37814,315185,164688,-115358,226976,-119355,-115411,65231,231562,37581
1010965,-114570,-107398,37856,315211,164775,-115364,227012,-119373,-115418,65258,231560,37620
1010966,-114575,-107369,37904,315228,164789,-115370,227096,-119355,-115424,65338,231615,37672
1010967,-114576,-107358,37914,315246,164753,-115383,227180,-119361,-115437,65352,231776,37679
1010968,-114569,-107356,37900,315305,164771,-115370,227249,-119338,-115422,65371,231831,37667
1010969,-114587,-107348,37835,315272,164794,-115377,227291,-119338,-115432,65410,231937,37600
1010970,-114555,-107348,37816,315244,164839,-115454,227298,-119345,-115506,65391,231957,37580
1010971,-114532,-107337,37838,315225,164810,-115494,227243,-119372,-115546,65348,231931,37602
1010972,-114558,-107372,37833,315201,164802,-115471,227168,-119398,-115523,65285,231829,37599
1010973,-114589,-107409,37791,315173,164756,-115466,227119,-119435,-115516,65237,231755,37555
1010974,-114606,-107445,37746,315160,164644,-115480,227086,-119481,-115532,65166,231771,37513
1010975,-114620,-107435,37738,315179,164547,-115508,227091,-119498,-115560,65143,231661,37502
1010976,-114642,-107449,37716,315128,164503,-115526,227090,-119499,-115577,65075,231482,37482
1010977,-114656,-107449,37726,315125,164474,-115565,227075,-119480,-115618,65062,231418,37493
1010978,-114733,-107458,37760,315137,164502,-115627,227029,-119498,-115678,64961,231459,37526
1010979,-114713,-107460,37736,315085,164495,-115603,227047,-119472,-115655,64994,231339,37501
1010980,-114688,-107446,37744,315069,164486,-115546,227053,-119451,-115599,65044,231213,37509
1010981,-114660,-107458,37781,315031,164431,-115482,227014,-119449,-115535,65128,231272,37547
1010982,-114640,-107442,37804,315052,164245,-115430,226960,-119449,-115484,65190,231477,37570
1010983,-114583,-107419,37784,315015,164083,-115375,226948,-119399,-115428,65266,231695,37551
1010984,-114550,-107401,37730,314923,164034,-115343,227007,-119340,-115396,65342,231829,37496
1010985,-114534,-107406,37682,314881,164148,-115349,227056,-119324,-115401,65371,231927,37448
1010986,-114529,-107405,37629,314857,164389,-115350,227096,-119299,-115404,65407,232054,37391
1010987,-114510,-107410,37619,314904,164528,-115361,227167,-119278,-115414,65429,232002,37384
1010988,-114454,-107414,37693,315016,164601,-115330,227183,-119277,-115386,65390,231959,37459
1010989,-114422,-107393,37745,315049,164667,-115275,227125,-119278,-115326,65401,231878,37514
1010990,-114424,-107418,37772,315051,164731,-115244,227088,-119287,-115299,65411,231760,37534
1010991,-114452,-107418,37767,315115,164774,-115272,227029,-119298,-115326,65361,231696,37534
1010992,-114485,-107435,37755,315096,164703,-115284,227008,-119315,-115339,65314,231655,37522
1010993,-114523,-107452,37741,315043,164598,-115324,227015,-119366,-115379,65242,231693,37503
1010994,-114575,-107493,37700,314993,164539,-115361,227045,-119378,-115414,65186,231661,37466
1010995,-114585,-107509,37638,314905,164530,-115373,227090,-119404,-115429,65189,231639,37403
1010996,-114588,-107521,37583,314759,164501,-115387,227115,-119406,-115440,65142,231590,37346
1010997,-114607,-107530,37536,314744,164378,-115376,227134,-119384,-115431,65163,231561,37300
1010998,-114641,-107552,37500,314745,164324,-115375,227122,-119375,-115427,65180,231527,37264
1010999,-114645,-107568,37468,314779,164321,-115370,227094,-119385,-115423,65200,231485,37234
1011000,-114617,-107564,37454,314765,164266,-115335,227072,-119347,-115392,65256,231512,37220
1011001,-114597,-107557,37468,314775,164108,-115305,227082,-119301,-115360,65283,231624,37232
1011002,-114591,-107548,37474,314754,164079,-115274,227113,-119268,-115327,65301,231691,37240
1011003,-114605,-107539,37483,314707,164221,-115240,227150,-119228,-115295,65335,231678,37249
1011004,-114567,-107505,37537,314665,164252,-115204,227205,-119220,-115257,65367,231715,37302
1011005,-114519,-107487,37530,314645,164221,-115188,227243,-119196,-115242,65407,231796,37292
1011006,-114456,-107464,37522,314762,164306,-115186,227285,-119182,-115239,65450,231811,37286
1011007,-114442,-107464,37519,314852,164381,-115180,227309,-119192,-115233,65445,231856,37283
1011008,-114417,-107467,37514,314986,164474,-115197,227353,-119189,-115252,65412,231900,37277
1011009,-114400,-107453,37556,315039,164522,-115197,227370,-119187,-115249,65399,231846,37319
1011010,-114411,-107443,37608,315063,164512,-115211,227382,-119182,-115263,65428,231741,37372
1011011,-114427,-107457,37608,315066,164546,-115238,227333,-119202,-115291,65387,231685,37375
1011012,-114451,-107466,37582,315042,164576,-115266,227286,-119216,-115318,65318,231670,37348
1011013,-114467,-107483,37586,315058,164530,-115317,227236,-119276,-115370,65309,231568,37352
1011014,-114498,-107501,37599,315012,164512,-115354,227188,-119298,-115407,65276,231508,37366
1011015,-114526,-107505,37609,314998,164358,-115383,227195,-119276,-115437,65264,231446,37373
1011016,-114536,-107512,37610,314938,164154,-115415,227172,-119290,-115469,65273,231456,37376
1011017,-114557,-107522,37577,314855,164119,-115454,227143,-119292,-115510,65299,231516,37341
1011018,-114551,-107508,37563,314793,164169,-115425,227116,-119274,-115476,65351,231238,37328
1011019,-114556,-107507,37559,314762,164117,-115349,227115,-119256,-115404,65413,231107,37328
1011020,-114561,-107509,37553,314698,164259,-115355,227070,-119251,-115407,65328,231249,37320
1011021,-114564,-107514,37561,314694,164355,-115408,227052,-119242,-115463,65254,231413,37326
1011022,-114524,-107507,37555,314714,164315,-115367,227099,-119212,-115422,65299,231470,37318
1011023,-114452,-107495,37593,314797,164117,-115320,227066,-119190,-115372,65286,231699,37358
1011024,-114409,-107472,37623,314907,164048,-115270,226949,-119178,-115324,65342,231838,37387
1011025,-114417,-107463,37629,314964,164183,-115236,226938,-119189,-115290,65355,231857,37394
1011026,-114452,-107452,37646,315008,164335,-115216,227009,-119241,-115274,65336,232024,37409
1011027,-114477,-107442,37661,315009,164427,-115209,227039,-119253,-115262,65385,232204,37424
1011028,-114476,-107430,37655,315015,164472,-115172,227129,-119234,-115226,65453,232251,37418
1011029,-114489,-107412,37661,315020,164561,-115152,227218,-119229,-115203,65500,232141,37426
1011030,-114466,-107397,37645,315007,164642,-115174,227268,-119248,-115226,65482,232039,37411
1011031,-114457,-107415,37668,315004,164628,-115196,227233,-119278,-115248,65468,232013,37432
1011032,-114449,-107420,37662,314982,164582,-115230,227141,-119305,-115283,65438,232017,37426
1011033,-114511,-107439,37620,314963,164605,-115296,227090,-119333,-115347,65395,231980,37385
1011034,-114542,-107454,37598,314943,164645,-115361,227032,-119353,-115413,65339,231892,37361
1011035,-114571,-107453,37577,315002,164623,-115384,226999,-119365,-115436,65305,231806,37342
1011036,-114626,-107450,37520,314956,164593,-115392,226997,-119372,-115445,65300,231678,37288
1011037,-114619,-107436,37521,314888,164474,-115352,227011,-119358,-115403,65320,231555,37286
1011038,-114608,-107433,37562,314903,164434,-115353,227031,-119363,-115405,65252,231391,37328
1011039,-114614,-107439,37620,314939,164411,-115332,227031,-119374,-115383,65209,231296,37386
1011040,-114591,-107465,37688,314980,164504,-115361,226998,-119390,-115413,65168,231407,37457
1011041,-114560,-107449,37744,315005,164589,-115423,226953,-119389,-115476,65109,231468,37509
1011042,-114539,-107438,37778,315076,164670,-115416,226929,-119385,-115472,65081,231516,37541
1011043,-114541,-107444,37778,315136,164693,-115370,226934,-119376,-115421,65113,231539,37543
1011044,-114529,-107432,37783,315159,164604,-115293,227019,-119318,-115347,65174,231598,37549
1011045,-114482,-107402,37810,315144,164359,-115255,227104,-119302,-115307,65281,231662,37575
1011046,-114455,-107392,37834,315139,164374,-115219,227170,-119285,-115272,65398,231744,37599
1011047,-114411,-107368,37845,315157,164372,-115224,227252,-119283,-115280,65458,231767,37609
1011048,-114373,-107350,37854,315139,164365,-115205,227332,-119275,-115258,65506,231855,37620
1011049,-114359,-107343,37863,315173,164348,-115193,227319,-119287,-115245,65526,231951,37627
1011050,-114396,-107366,37868,315163,164548,-115251,227295,-119315,-115302,65484,231959,37636
1011051,-114410,-107381,37884,315179,164641,-115324,227274,-119338,-115378,65422,231941,37649
1011052,-114453,-107384,37874,315230,164636,-115349,227220,-119351,-115404,65334,231806,37637
1011053,-114451,-107394,37866,315258,164634,-115402,227171,-119359,-115454,65275,231617,37631
1011054,-114491,-107430,37837,315199,164653,-115405,227053,-119393,-115459,65293,231528,37603
1011055,-114530,-107430,37823,315163,164642,-115411,226992,-119420,-115463,65296,231550,37586
1011056,-114575,-107448,37810,315101,164592,-115440,226976,-119461,-115494,65225,231550,37573
1011057,-114592,-107451,37826,315113,164550,-115450,226980,-119506,-115504,65189,231571,37593
1011058,-114592,-107452,37857,315084,164544,-115478,226991,-119509,-115532,65185,231418,37620
1011059,-114576,-107433,37863,315033,164513,-115548,227056,-119475,-115603,65159,231313,37629
1011060,-114564,-107440,37829,315044,164518,-115576,227123,-119465,-115630,65175,231340,37593
1011061,-114562,-107439,37789,315119,164572,-115590,227074,-119486,-115639,65125,231450,37556
1011062,-114564,-107424,37782,315133,164633,-115553,227055,-119503,-115609,65162,231571,37546
1011063,-114540,-107408,37823,315198,164608,-115500,227040,-119517,-115554,65174,231620,37589
1011064,-114513,-107382,37876,315255,164577,-115458,227021,-119506,-115513,65221,231682,37639
1011065,-114516,-107370,37927,315265,164627,-115452,226954,-119496,-115504,65254,231803,37695
1011066,-114472,-107339,37955,315272,164710,-115453,227022,-119462,-115507,65283,231834,37722
1011067,-114447,-107308,37996,315263,164822,-115409,227112,-119432,-115461,65312,231688,37761
1011068,-114458,-107297,38016,315243,164841,-115354,227195,-119375,-115410,65331,231737,37781
1011069,-114457,-107293,38055,315262,164780,-115369,227256,-119394,-115422,65360,231778,37820
1011070,-114470,-107296,38045,315251,164768,-115378,227219,-119431,-115430,65351,231858,37810
1011071,-114473,-107299,37981,315284,164674,-115345,227181,-119445,-115398,65317,231954,37750
1011072,-114485,-107314,37916,315328,164501,-115380,227125,-119465,-115432,65293,231993,37680
1011073,-114540,-107347,37863,315347,164428,-115429,227064,-119508,-115484,65262,231992,37626
1011074,-114620,-107352,37826,315251,164443,-115459,227043,-119534,-115510,65258,231913,37589
1011075,-114618,-107392,37785,315040,164449,-115430,227055,-119500,-115484,65331,231814,37553
1011076,-114600,-107399,37769,315011,164398,-115444,227032,-119507,-115500,65292,231639,37532
1011077,-114606,-107429,37802,315029,164275,-115464,226997,-119523,-115516,65287,231670,37568
1011078,-114636,-107423,37826,315051,164136,-115463,226920,-119551,-115516,65268,231731,37591
1011079,-114623,-107433,37871,315017,164133,-115481,226882,-119570,-115533,65282,231715,37638
1011080,-114606,-107435,37887,314996,164206,-115478,226866,-119553,-115531,65293,231677,37653
1011081,-114547,-107436,37897,314967,164306,-115449,226894,-119543,-115502,65296,231559,37663
1011082,-114524,-107432,37902,314941,164492,-115441,226929,-119510,-115494,65320,231398,37670
1011083,-114489,-107412,37932,314999,164628,-115464,226981,-119515,-115515,65332,231289,37699
1011084,-114480,-107419,37921,315068,164675,-115439,226914,-119510,-115494,65366,231500,37684
1011085,-114508,-107412,37891,315176,164706,-115424,226874,-119500,-115475,65340,231693,37658
1011086,-114512,-107388,37900,315306,164771,-115428,226950,-119478,-115481,65332,231754,37662
1011087,-114501,-107380,37888,315312,164810,-115426,227072,-119487,-115479,65297,231795,37657
1011088,-114462,-107381,37891,315337,164806,-115408,227159,-119462,-115461,65351,231778,37654
1011089,-114427,-107358,37901,315341,164780,-115421,227227,-119411,-115475,65411,231646,37668
1011090,-114407,-107342,37902,315359,164807,-115428,227318,-119416,-115482,65343,231471,37667
1011091,-114399,-107337,37882,315302,164787,-115442,227322,-119405,-115495,65327,231404,37648
1011092,-114419,-107338,37845,315238,164668,-115460,227244,-119422,-115516,65310,231466,37609
1011093,-114467,-107371,37828,315183,164458,-115501,227125,-119471,-115553,65265,231767,37589
1011094,-114524,-107415,37832,315060,164306,-115509,227018,-119483,-115565,65251,231945,37595
1011095,-114541,-107435,37864,315018,164210,-115520,226947,-119485,-115574,65225,231965,37631
1011096,-114576,-107476,37833,314998,164241,-115549,226937,-119529,-115601,65151,231867,37598
1011097,-114620,-107499,37832,315007,164408,-115582,226900,-119532,-115637,65126,231710,37595
1011098,-114666,-107501,37772,315032,164459,-115602,226938,-119555,-115652,65091,231645,37539
1011099,-114673,-107520,37765,315038,164408,-115639,226992,-119589,-115692,65053,231731,37528
1011100,-114656,-107515,37771,314960,164402,-115633,227039,-119588,-115684,65151,231713,37540
1011101,-114631,-107517,37791,314955,164403,-115633,227057,-119580,-115686,65265,231620,37561
1011102,-114599,-107507,37791,315043,164429,-115634,227062,-119546,-115687,65318,231578,37554
1011103,-114576,-107476,37798,315189,164449,-115630,227051,-119528,-115683,65314,231604,37563
1011104,-114548,-107442,37819,315250,164412,-115593,227054,-119512,-115645,65326,231652,37586
1011105,-114505,-107404,37853,315180,164394,-115497,227089,-119470,-115548,65301,231604,37616
1011106,-114446,-107356,37860,315181,164402,-115423,227162,-119438,-115475,65349,231577,37626
1011107,-114461,-107370,37829,315128,164529,-115427,227202,-119445,-115482,65394,231704,37593
1011108,-114487,-107350,37836,315155,164549,-115429,227255,-119415,-115483,65423,231842,37602
1011109,-114465,-107349,37843,315279,164451,-115375,227292,-119393,-115430,65405,231810,37608
1011110,-114472,-107346,37874,315327,164473,-115377,227248,-119425,-115430,65343,231861,37642
1011111,-114480,-107359,37863,315235,164618,-115383,227199,-119447,-115436,65308,231833,37630
1011112,-114523,-107386,37844,315107,164743,-115405,227123,-119479,-115458,65307,231772,37608
1011113,-114519,-107424,37825,315057,164699,-115439,227074,-119510,-115489,65306,231664,37590
1011114,-114548,-107445,37812,314968,164622,-115486,227054,-119510,-115540,65249,231643,37575
1011115,-114558,-107455,37792,314931,164579,-115568,227046,-119518,-115621,65225,231630,37555
1011116,-114591,-107465,37785,314987,164513,-115669,227018,-119533,-115724,65196,231609,37552
1011117,-114574,-107486,37741,314968,164428,-115717,227024,-119531,-115770,65189,231626,37506
1011118,-114596,-107522,37708,314893,164357,-115697,227029,-119545,-115751,65228,231650,37474
1011119,-114604,-107535,37687,314873,164352,-115628,227022,-119550,-115679,65261,231565,37454
1011120,-114583,-107527,37702,314949,164397,-115550,227003,-119556,-115602,65252,231472,37470
1011121,-114589,-107520,37716,315001,164448,-115538,226996,-119578,-115588,65216,231549,37485
1011122,-114575,-107505,37733,315018,164484,-115500,226938,-119544,-115551,65213,231605,37497
1011123,-114556,-107452,37789,315058,164498,-115493,226864,-119519,-115544,65212,231664,37557
1011124,-114545,-107417,37830,315116,164495,-115473,226869,-119512,-115526,65246,231763,37597
1011125,-114566,-107393,37835,315144,164517,-115489,226953,-119493,-115541,65281,231766,37601
1011126,-114558,-107383,37824,315154,164540,-115438,227059,-119472,-115492,65359,231851,37587
1011127,-114526,-107350,37831,315113,164477,-115380,227101,-119407,-115436,65454,231840,37596
1011128,-114460,-107321,37875,315157,164448,-115332,227217,-119354,-115385,65489,231655,37640
1011129,-114416,-107300,37918,315202,164502,-115372,227313,-119366,-115427,65407,231552,37683
1011130,-114431,-107314,37931,315181,164620,-115430,227284,-119379,-115480,65305,231708,37698
1011131,-114435,-107343,37920,315152,164671,-115485,227206,-119411,-115538,65295,231713,37687
1011132,-114415,-107368,37868,315069,164566,-115527,227201,-119423,-115582,65192,231812,37634
1011133,-114435,-107398,37780,315057,164467,-115565,227237,-119461,-115616,65119,231815,37549
1011134,-114486,-107428,37742,315064,164402,-115565,227180,-119504,-115616,65139,231728,37511
1011135,-114505,-107424,37771,315104,164355,-115587,227098,-119511,-115640,65158,231627,37537
1011136,-114583,-107427,37770,315172,164330,-115614,227060,-119500,-115671,65170,231400,37534
1011137,-114601,-107427,37715,315153,164379,-115606,227035,-119496,-115655,65198,231305,37481
1011138,-114609,-107412,37636,315006,164408,-115596,226972,-119497,-115646,65185,231367,37400
1011139,-114594,-107402,37603,314837,164454,-115517,226935,-119475,-115570,65188,231347,37369
1011140,-114573,-107389,37634,314844,164411,-115512,226972,-119485,-115562,65128,231420,37398
1011141,-114582,-107405,37695,314904,164327,-115525,227024,-119507,-115579,65175,231493,37462
1011142,-114558,-107379,37789,315001,164274,-115559,227036,-119525,-115609,65186,231514,37554
1011143,-114533,-107366,37862,315083,164369,-115554,227063,-119519,-115607,65202,231401,37626
1011144,-114557,-107372,37890,315055,164535,-115546,227082,-119479,-115602,65233,231450,37657
1011145,-114529,-107366,37888,315092,164562,-115545,227133,-119465,-115599,65193,231556,37655
1011146,-114486,-107349,37913,315195,164564,-115527,227142,-119429,-115579,65246,231705,37677
1011147,-114444,-107311,37923,315245,164543,-115461,227164,-119401,-115515,65236,231725,37686
1011148,-114400,-107268,37955,315261,164520,-115364,227133,-119361,-115416,65302,231663,37721
1011149,-114376,-107262,37950,315321,164573,-115331,227106,-119345,-115379,65261,231646,37714
1011150,-114346,-107243,37935,315333,164671,-115358,227103,-119373,-115408,65225,231537,37697
1011151,-114318,-107235,37945,315346,164788,-115402,227080,-119366,-115454,65290,231192,37707
1011152,-114368,-107265,37954,315322,164755,-115492,227008,-119398,-115545,65309,231195,37719
1011153,-114462,-107319,37942,315259,164687,-115610,226965,-119466,-115664,65196,231526,37707
1011154,-114545,-107355,37961,315177,164563,-115671,226947,-119517,-115723,65203,231728,37726
1011155,-114585,-107383,37996,315121,164476,-115642,226935,-119545,-115696,65220,231751,37761
1011156,-114641,-107401,37986,315005,164366,-115627,226920,-119537,-115681,65206,231753,37749
1011157,-114662,-107398,37955,314992,164231,-115616,226953,-119546,-115669,65190,231755,37719
1011158,-114638,-107412,37924,314974,164102,-115638,226981,-119514,-115691,65197,231657,37690
1011159,-114637,-107404,37879,314993,164103,-115659,227012,-119507,-115714,65156,231593,37646
1011160,-114622,-107399,37874,314993,164171,-115663,226971,-119525,-115715,65164,231681,37639
1011161,-114625,-107410,37861,314935,164322,-115633,226917,-119510,-115686,65206,231766,37628
1011162,-114654,-107406,37866,314959,164423,-115638,226949,-119504,-115688,65217,231817,37633
1011163,-114645,-107380,37868,315126,164481,-115606,226994,-119520,-115659,65228,231741,37635
1011164,-114595,-107352,37897,315181,164529,-115534,227032,-119500,-115589,65283,231679,37661
1011165,-114557,-107330,37908,315152,164552,-115479,227104,-119454,-115534,65308,231614,37671
1011166,-114519,-107297,37930,315107,164527,-115416,227173,-119408,-115470,65361,231674,37696
1011167,-114511,-107283,37922,315046,164544,-115358,227214,-119385,-115415,65418,231813,37685
1011168,-114480,-107277,37929,315045,164597,-115361,227257,-119379,-115414,65443,231919,37696
1011169,-114460,-107263,37928,315159,164523,-115362,227283,-119358,-115416,65467,231881,37695
1011170,-114445,-107268,37938,315229,164469,-115382,227286,-119354,-115438,65490,231828,37704
1011171,-114458,-107285,37938,315209,164486,-115399,227233,-119368,-115453,65482,231822,37702
1011172,-114488,-107301,37929,315207,164415,-115433,227145,-119399,-115485,65454,231875,37693
1011173,-114504,-107322,37930,315079,164315,-115497,227077,-119422,-115551,65453,231934,37696
1011174,-114548,-107347,37904,315003,164259,-115529,227030,-119434,-115581,65407,231962,37668
1011175,-114566,-107360,37878,314981,164222,-115543,226990,-119428,-115596,65377,231932,37642
1011176,-114571,-107371,37811,315007,164198,-115511,226987,-119448,-115565,65320,231744,37577
1011177,-114571,-107382,37748,315060,164277,-115454,226983,-119453,-115511,65241,231521,37511
1011178,-114611,-107374,37749,315210,164403,-115441,226957,-119467,-115495,65140,231218,37512
1011179,-114654,-107374,37758,315213,164565,-115407,226963,-119462,-115461,65156,230947,37524
1011180,-114678,-107386,37794,315195,164682,-115405,226881,-119481,-115460,65204,230962,37558
1011181,-114659,-107381,37859,315238,164764,-115443,226721,-119487,-115497,65211,231196,37623
1011182,-114611,-107386,37911,315231,164772,-115453,226745,-119483,-115506,65255,231334,37677
1011183,-114609,-107392,37934,315222,164685,-115448,226848,-119476,-115502,65291,231535,37698
1011184,-114561,-107374,37944,315266,164610,-115456,226893,-119467,-115506,65270,231769,37713
1011185,-114512,-107371,37961,315272,164583,-115435,226932,-119452,-115489,65292,231853,37725
1011186,-114478,-107354,37992,315288,164569,-115373,227031,-119389,-115424,65421,231810,37757
1011187,-114455,-107338,37991,315292,164593,-115389,227146,-119360,-115441,65505,231786,37755
1011188,-114446,-107314,38012,315302,164706,-115436,227215,-119342,-115490,65527,231812,37776
1011189,-114463,-107298,38037,315299,164688,-115438,227230,-119299,-115493,65518,231863,37805
1011190,-114454,-107302,38071,315325,164681,-115425,227201,-119321,-115477,65487,231890,37834
1011191,-114434,-107299,38048,315374,164632,-115415,227198,-119348,-115470,65427,231828,37813
1011192,-114459,-107314,38020,315431,164664,-115418,227181,-119406,-115470,65376,231645,37784
1011193,-114481,-107321,38009,315330,164726,-115386,227150,-119419,-115438,65347,231456,37777
1011194,-114557,-107362,37962,315199,164627,-115371,227112,-119448,-115426,65267,231624,37725
1011195,-114584,-107405,37924,315163,164513,-115402,227040,-119494,-115455,65224,231892,37687
1011196,-114615,-107446,37859,315062,164443,-115379,226957,-119493,-115431,65262,231918,37624
1011197,-114649,-107464,37804,314952,164390,-115377,226940,-119459,-115431,65335,231907,37569
1011198,-114664,-107472,37793,314928,164346,-115394,226935,-119485,-115445,65351,231896,37558
1011199,-114662,-107471,37803,314949,164265,-115407,226927,-119474,-115461,65379,231862,37568
1011200,-114681,-107459,37824,314942,164251,-115395,226937,-119421,-115449,65426,231821,37589
1011201,-114704,-107458,37825,314966,164349,-115405,226990,-119397,-115457,65497,231759,37590
1011202,-114672,-107438,37820,315077,164401,-115390,227018,-119389,-115444,65518,231652,37587
1011203,-114624,-107405,37851,315179,164416,-115374,227057,-119373,-115427,65572,231571,37617
1011204,-114562,-107375,37879,315235,164440,-115345,227101,-119363,-115397,65574,231547,37645
1011205,-114498,-107366,37896,315244,164448,-115363,227134,-119323,-115419,65523,231646,37661
1011206,-114444,-107341,37908,315248,164439,-115339,227193,-119282,-115392,65544,231798,37674
1011207,-114408,-107324,37910,315199,164527,-115320,227195,-119258,-115372,65539,231919,37674
1011208,-114405,-107326,37879,315173,164610,-115286,227235,-119231,-115340,65606,232033,37646
1011209,-114411,-107336,37887,315190,164587,-115234,227232,-119228,-115290,65635,232141,37651
1011210,-114400,-107316,37878,315205,164632,-115231,227231,-119255,-115287,65606,232035,37642
1011211,-114383,-107300,37911,315169,164624,-115227,227203,-119245,-115280,65627,231835,37677
1011212,-114391,-107310,37892,315127,164548,-115208,227116,-119239,-115258,65659,231645,37658
1011213,-114449,-107351,37878,315083,164521,-115261,227011,-119286,-115311,65628,231770,37642
1011214,-114495,-107403,37800,315037,164448,-115299,226959,-119315,-115351,65601,231879,37562
1011215,-114531,-107420,37729,315031,164456,-115283,226961,-119308,-115335,65581,231767,37494
1011216,-114564,-107461,37721,315004,164483,-115275,226945,-119308,-115329,65533,231625,37485
1011217,-114610,-107481,37698,314991,164579,-115293,226912,-119353,-115346,65497,231635,37461
1011218,-114663,-107524,37691,315021,164602,-115324,226904,-119394,-115378,65421,231662,37457
1011219,-114706,-107527,37689,315118,164647,-115357,226873,-119431,-115411,65387,231688,37456
1011220,-114715,-107535,37694,315204,164559,-115334,226849,-119416,-115388,65402,231727,37459
1011221,-114693,-107520,37717,315196,164493,-115309,226854,-119359,-115362,65439,231822,37482
1011222,-114665,-107496,37748,315141,164535,-115293,226838,-119309,-115346,65469,231856,37515
1011223,-114590,-107483,37761,315089,164623,-115282,226845,-119286,-115334,65472,231838,37528
1011224,-114550,-107483,37774,315060,164669,-115273,226918,-119254,-115327,65531,231884,37540
1011225,-114554,-107454,37810,315105,164575,-115265,227019,-119219,-115320,65539,231952,37574
1011226,-114514,-107432,37818,315204,164562,-115272,227174,-119191,-115326,65546,231999,37584
1011227,-114481,-107418,37798,315212,164560,-115225,227307,-119172,-115280,65518,232011,37560
1011228,-114423,-107407,37769,315244,164498,-115175,227304,-119140,-115223,65577,232049,37538
1011229,-114386,-107382,37765,315278,164502,-115104,227361,-119113,-115159,65602,231860,37531
1011230,-114393,-107391,37772,315229,164541,-115117,227395,-119119,-115171,65687,231769,37536
1011231,-114409,-107427,37785,315183,164604,-115140,227308,-119164,-115190,65699,231840,37551
1011232,-114481,-107467,37788,315167,164613,-115170,227217,-119231,-115222,65671,231922,37551
1011233,-114509,-107516,37752,315077,164639,-115194,227197,-119283,-115245,65644,231862,37516
1011234,-114541,-107523,37710,315055,164594,-115188,227174,-119310,-115238,65632,231772,37475
1011235,-114561,-107530,37683,315033,164575,-115184,227142,-119315,-115234,65611,231717,37448
1011236,-114582,-107539,37631,314949,164506,-115182,227109,-119306,-115236,65563,231690,37397
1011237,-114602,-107558,37593,314943,164437,-115181,227077,-119289,-115233,65556,231723,37360
1011238,-114617,-107592,37525,314919,164392,-115190,227076,-119300,-115244,65515,231769,37289
1011239,-114625,-107601,37503,314908,164392,-115219,227087,-119301,-115274,65485,231812,37267
1011240,-114606,-107591,37553,314880,164405,-115232,227105,-119296,-115284,65507,231741,37320
1011241,-114572,-107559,37607,314859,164366,-115209,227136,-119275,-115261,65534,231705,37370
1011242,-114522,-107543,37637,314862,164357,-115163,227176,-119265,-115219,65523,231710,37400
1011243,-114506,-107506,37662,314944,164357,-115169,227186,-119240,-115219,65559,231785,37427
1011244,-114488,-107470,37717,315012,164320,-115155,227180,-119236,-115211,65605,231850,37478
1011245,-114472,-107452,37717,315092,164309,-115107,227164,-119205,-115162,65686,231764,37485
1011246,-114417,-107414,37739,315141,164342,-115066,227175,-119142,-115116,65768,231689,37505
1011247,-114406,-107363,37788,315132,164390,-115037,227192,-119116,-115089,65779,231651,37552
1011248,-114365,-107339,37835,315203,164374,-115022,227275,-119103,-115074,65829,231639,37603
1011249,-114351,-107326,37859,315132,164356,-115025,227323,-119116,-115077,65827,231698,37624
1011250,-114376,-107306,37884,315117,164407,-115062,227360,-119109,-115115,65761,231655,37646
1011251,-114396,-107314,37871,315044,164421,-115112,227336,-119122,-115165,65708,231791,37636
1011252,-114412,-107367,37802,314947,164448,-115172,227265,-119175,-115222,65696,231955,37567
1011253,-114440,-107395,37757,314937,164464,-115197,227165,-119231,-115250,65609,231997,37521
1011254,-114513,-107421,37708,314893,164434,-115187,227067,-119254,-115241,65562,232074,37474
1011255,-114554,-107447,37678,314881,164470,-115222,226991,-119293,-115277,65513,232157,37441
1011256,-114578,-107446,37682,314902,164455,-115291,226942,-119315,-115344,65452,232077,37447
1011257,-114586,-107473,37720,314937,164505,-115383,226947,-119314,-115438,65413,231914,37485
1011258,-114583,-107483,37752,314973,164585,-115495,226938,-119320,-115546,65411,231799,37518
1011259,-114610,-107474,37751,314999,164650,-115498,226947,-119317,-115554,65391,231698,37517
1011260,-114592,-107469,37760,315043,164646,-115422,226954,-119311,-115475,65398,231602,37528
1011261,-114571,-107457,37784,315079,164667,-115366,226944,-119327,-115418,65428,231595,37551
1011262,-114571,-107431,37805,315158,164662,-115277,226922,-119329,-115330,65459,231581,37572
1011263,-114547,-107401,37839,315180,164623,-115196,226942,-119320,-115250,65493,231629,37603
1011264,-114544,-107386,37868,315229,164603,-115146,227037,-119335,-115197,65470,231701,37636
1011265,-114522,-107374,37898,315164,164608,-115140,227092,-119306,-115192,65463,231825,37665
1011266,-114461,-107342,37914,315159,164645,-115144,227144,-119276,-115194,65512,231913,37680
1011267,-114449,-107305,37934,315243,164669,-115157,227177,-119278,-115211,65557,231903,37699
1011268,-114429,-107278,37980,315284,164711,-115144,227235,-119266,-115198,65616,231866,37747
1011269,-114381,-107259,38015,315323,164710,-115154,227223,-119270,-115208,65685,231782,37781
1011270,-114368,-107230,38065,315356,164644,-115150,227211,-119274,-115202,65698,231735,37832
1011271,-114365,-107232,38043,315348,164560,-115157,227175,-119262,-115211,65680,231725,37807
1011272,-114398,-107256,38015,315324,164519,-115170,227103,-119286,-115222,65626,231702,37786
1011273,-114443,-107285,37983,315293,164545,-115192,227007,-119315,-115244,65611,231645,37750
1011274,-114480,-107306,37990,315271,164533,-115242,226945,-119372,-115298,65507,231677,37755
1011275,-114508,-107321,37975,315254,164436,-115264,226923,-119403,-115317,65447,231758,37741
1011276,-114544,-107328,37912,315191,164322,-115293,226967,-119395,-115346,65458,231677,37679
1011277,-114544,-107349,37834,315153,164341,-115317,226992,-119400,-115371,65486,231658,37603
1011278,-114578,-107353,37787,315145,164430,-115348,226975,-119416,-115400,65462,231622,37555
1011279,-114607,-107367,37823,315198,164475,-115361,226942,-119428,-115414,65415,231605,37589
1011280,-114641,-107362,37908,315220,164535,-115352,226932,-119420,-115407,65401,231612,37676
1011281,-114665,-107356,37997,315220,164535,-115380,226929,-119427,-115432,65403,231642,37764
1011282,-114677,-107327,38028,315249,164558,-115358,226943,-119422,-115410,65418,231690,37795
1011283,-114613,-107293,38061,315216,164549,-115309,226916,-119408,-115365,65444,231750,37829
1011284,-114527,-107272,38108,315231,164487,-115285,226940,-119383,-115339,65466,231838,37873
1011285,-114513,-107261,38107,315216,164399,-115294,227018,-119364,-115347,65521,231985,37870
1011286,-114474,-107232,38120,315173,164384,-115227,227041,-119299,-115278,65613,232077,37884
1011287,-114443,-107224,38150,315154,164550,-115237,227072,-119282,-115289,65618,232080,37919
1011288,-114378,-107216,38146,315268,164680,-115207,227094,-119256,-115262,65570,232015,37912
1011289,-114372,-107197,38118,315432,164746,-115224,227079,-119268,-115277,65557,231916,37884
1011290,-114338,-107164,38147,315527,164688,-115199,227056,-119254,-115250,65572,231702,37914
1011291,-114337,-107157,38182,315490,164548,-115169,227090,-119246,-115224,65551,231559,37950
1011292,-114377,-107163,38130,315368,164487,-115197,227172,-119255,-115250,65554,231460,37896
1011293,-114425,-107197,38095,315259,164372,-115258,227197,-119279,-115310,65524,231524,37862
1011294,-114448,-107227,38082,315243,164490,-115353,227044,-119352,-115405,65415,231618,37848
1011295,-114467,-107241,38058,315222,164631,-115371,226923,-119352,-115423,65381,231573,37826
1011296,-114485,-107277,38058,315218,164623,-115388,226868,-119379,-115442,65320,231461,37823
1011297,-114523,-107295,38098,315256,164621,-115408,226835,-119398,-115460,65288,231453,37865
1011298,-114562,-107306,38082,315177,164524,-115411,226793,-119431,-115463,65268,231588,37848
1011299,-114564,-107314,38083,315137,164502,-115429,226734,-119442,-115485,65208,231756,37851
1011300,-114571,-107327,38049,315108,164447,-115401,226787,-119453,-115454,65274,231832,37817
1011301,-114601,-107339,38016,315072,164498,-115402,226882,-119442,-115457,65370,231853,37780
1011302,-114586,-107336,38012,315116,164602,-115396,226899,-119456,-115449,65429,231828,37781
1011303,-114538,-107305,38011,315187,164644,-115354,226906,-119436,-115408,65433,231767,37778
1011304,-114486,-107297,37972,315254,164672,-115317,226944,-119395,-115374,65466,231780,37738
1011305,-114473,-107293,37979,315305,164724,-115308,227016,-119398,-115360,65467,231799,37745
1011306,-114450,-107280,37999,315402,164710,-115296,227085,-119360,-115347,65538,231844,37763
1011307,-114423,-107273,38017,315410,164645,-115253,227175,-119330,-115305,65606,231838,37785
1011308,-114387,-107243,38097,315418,164594,-115286,227240,-119306,-115337,65625,231898,37862
1011309,-114384,-107244,38096,315384,164572,-115273,227288,-119301,-115325,65636,231949,37860
1011310,-114393,-107240,38093,315313,164601,-115267,227304,-119293,-115317,65657,231868,37862
1011311,-114420,-107253,38070,315300,164642,-115258,227292,-119298,-115315,65623,231802,37835
1011312,-114429,-107263,38023,315284,164613,-115325,227289,-119304,-115374,65574,231728,37792
1011313,-114449,-107245,37974,315276,164600,-115404,227260,-119336,-115458,65480,231655,37740
1011314,-114504,-107264,37955,315285,164594,-115439,227152,-119369,-115492,65414,231619,37721
1011315,-114560,-107278,37929,315290,164549,-115432,227057,-119374,-115485,65423,231649,37698
1011316,-114613,-107320,37962,315205,164512,-115437,226996,-119384,-115489,65427,231605,37730
1011317,-114620,-107337,37963,315132,164498,-115405,227000,-119401,-115459,65426,231500,37728
1011318,-114651,-107336,37959,315165,164442,-115398,226989,-119412,-115449,65413,231394,37726
1011319,-114647,-107332,37962,315174,164398,-115425,226962,-119408,-115475,65339,231463,37727
1011320,-114655,-107339,37950,315226,164355,-115408,226950,-119390,-115460,65348,231484,37720
1011321,-114658,-107352,37919,315222,164394,-115398,226961,-119381,-115454,65404,231556,37686
1011322,-114640,-107334,37946,315215,164359,-115358,226999,-119366,-115411,65433,231601,37713
1011323,-114549,-107322,37980,315125,164277,-115333,227053,-119345,-115386,65468,231717,37745
1011324,-114545,-107319,37987,315055,164262,-115298,227099,-119337,-115353,65534,231947,37754
1011325,-114542,-107325,37987,314998,164357,-115277,227133,-119337,-115330,65573,232039,37748
1011326,-114480,-107317,38012,315017,164486,-115255,227167,-119310,-115310,65561,232057,37778
1011327,-114420,-107287,38065,315073,164653,-115296,227206,-119287,-115351,65476,231972,37830
1011328,-114376,-107243,38130,315204,164704,-115289,227273,-119229,-115344,65448,231740,37896
1011329,-114368,-107234,38136,315257,164740,-115264,227242,-119207,-115317,65498,231660,37901
1011330,-114358,-107226,38102,315285,164826,-115256,227128,-119237,-115312,65470,231676,37866
1011331,-114376,-107246,38037,315317,164819,-115291,227071,-119296,-115344,65374,231842,37803
1011332,-114431,-107271,37993,315346,164632,-115311,227051,-119324,-115363,65369,231917,37760
1011333,-114492,-107303,37955,315334,164550,-115336,226966,-119338,-115387,65381,231887,37720
1011334,-114521,-107370,37930,315271,164518,-115354,226877,-119363,-115407,65390,231820,37696
1011335,-114539,-107392,37919,315243,164444,-115378,226964,-119391,-115433,65389,231714,37685
1011336,-114600,-107412,37916,315175,164367,-115395,227027,-119420,-115449,65372,231631,37681
1011337,-114650,-107426,37903,315095,164443,-115401,227029,-119432,-115458,65377,231581,37667
1011338,-114628,-107435,37918,315097,164449,-115423,227002,-119439,-115476,65369,231443,37684
1011339,-114603,-107430,37928,315136,164442,-115454,226992,-119448,-115510,65329,231391,37696
1011340,-114577,-107421,37921,315152,164418,-115453,227009,-119462,-115504,65305,231454,37690
1011341,-114574,-107414,37906,315139,164411,-115451,226987,-119453,-115506,65333,231574,37672
1011342,-114564,-107408,37888,315085,164425,-115434,226975,-119445,-115487,65406,231658,37655
1011343,-114541,-107383,37904,315102,164458,-115423,226941,-119410,-115475,65428,231649,37671
1011344,-114486,-107339,37934,315226,164501,-115407,226967,-119376,-115460,65397,231580,37701
1011345,-114480,-107344,37911,315279,164533,-115426,227019,-119392,-115483,65387,231670,37680
1011346,-114460,-107336,37904,315287,164649,-115388,227107,-119380,-115443,65383,231752,37671
1011347,-114439,-107328,37895,315280,164646,-115362,227187,-119346,-115413,65453,231751,37664
1011348,-114412,-107297,37912,315272,164636,-115340,227240,-119328,-115392,65523,231811,37677
1011349,-114424,-107278,37952,315246,164539,-115359,227307,-119338,-115410,65558,231891,37720
1011350,-114407,-107275,37994,315228,164374,-115357,227334,-119304,-115410,65602,231828,37763
1011351,-114412,-107268,38016,315226,164349,-115414,227314,-119300,-115470,65605,231695,37782
1011352,-114431,-107289,37964,315077,164437,-115472,227268,-119314,-115526,65565,231653,37730
1011353,-114461,-107315,37924,315036,164464,-115483,227234,-119332,-115536,65464,231536,37692
1011354,-114471,-107351,37901,315044,164518,-115499,227100,-119376,-115553,65329,231518,37667
1011355,-114484,-107374,37897,315086,164595,-115556,226922,-119419,-115606,65209,231602,37663
1011356,-114535,-107391,37868,315101,164508,-115584,226823,-119432,-115637,65262,231593,37633
1011357,-114576,-107427,37837,315116,164369,-115588,226869,-119426,-115641,65315,231598,37603
1011358,-114589,-107439,37814,315086,164345,-115625,226872,-119442,-115679,65330,231527,37579
1011359,-114570,-107447,37820,315035,164325,-115634,226935,-119449,-115686,65333,231445,37587
1011360,-114527,-107420,37804,314929,164269,-115646,226980,-119441,-115697,65333,231546,37574
1011361,-114501,-107436,37769,314869,164158,-115601,227033,-119439,-115654,65338,231694,37536
1011362,-114508,-107431,37789,314880,164182,-115527,227111,-119428,-115579,65390,231611,37555
1011363,-114547,-107427,37805,314921,164299,-115455,227133,-119420,-115509,65386,231601,37572
1011364,-114520,-107399,37820,315004,164441,-115382,227137,-119439,-115436,65305,231624,37585
1011365,-114495,-107372,37822,315073,164474,-115358,227145,-119449,-115410,65279,231663,37587
1011366,-114465,-107356,37825,315029,164523,-115310,227205,-119432,-115363,65354,231760,37589
1011367,-114456,-107366,37819,315058,164601,-115282,227230,-119403,-115333,65376,231826,37590
1011368,-114421,-107359,37847,315197,164697,-115295,227211,-119414,-115346,65357,231852,37614
1011369,-114399,-107353,37862,315234,164730,-115323,227167,-119400,-115379,65287,231954,37625
1011370,-114420,-107346,37871,315230,164695,-115342,227139,-119386,-115394,65304,231958,37642
1011371,-114407,-107356,37826,315224,164645,-115337,227091,-119367,-115393,65383,231835,37592
1011372,-114418,-107375,37798,315231,164588,-115360,227012,-119391,-115414,65400,231719,37563
1011373,-114451,-107393,37779,315210,164536,-115355,226829,-119391,-115410,65414,231667,37544
1011374,-114485,-107413,37804,315157,164498,-115374,226714,-119437,-115426,65341,231661,37572
1011375,-114556,-107437,37781,315108,164512,-115392,226737,-119455,-115448,65339,231671,37546
1011376,-114636,-107466,37745,315066,164491,-115424,226780,-119482,-115476,65372,231581,37508
1011377,-114657,-107462,37703,315021,164473,-115455,226851,-119487,-115510,65343,231574,37466
1011378,-114654,-107463,37619,314944,164337,-115453,226900,-119493,-115506,65340,231605,37384
1011379,-114619,-107443,37566,314989,164181,-115463,227004,-119512,-115512,65341,231518,37333
1011380,-114594,-107423,37546,315057,164157,-115475,227073,-119501,-115529,65397,231353,37313
1011381,-114585,-107417,37555,315015,164184,-115452,227078,-119494,-115506,65438,231390,37319
1011382,-114533,-107427,37654,314974,164215,-115473,227025,-119487,-115525,65402,231570,37418
1011383,-114515,-107436,37770,314894,164400,-115492,227003,-119479,-115544,65397,231648,37535
1011384,-114500,-107411,37819,314928,164501,-115495,227048,-119473,-115548,65506,231578,37584
1011385,-114501,-107407,37822,315021,164494,-115488,227080,-119457,-115537,65524,231629,37584
1011386,-114457,-107361,37856,315138,164535,-115472,227087,-119455,-115529,65421,231792,37620
1011387,-114420,-107343,37884,315216,164523,-115464,227103,-119444,-115519,65398,231875,37645
1011388,-114398,-107328,37932,315280,164468,-115448,227156,-119429,-115500,65457,231927,37698
1011389,-114379,-107320,37931,315209,164462,-115432,227209,-119415,-115484,65490,231960,37696
1011390,-114378,-107316,37913,315175,164526,-115434,227236,-119422,-115488,65494,231936,37675
1011391,-114390,-107309,37876,315144,164564,-115448,227214,-119429,-115504,65464,231831,37640
1011392,-114427,-107327,37901,315189,164487,-115473,227203,-119422,-115525,65436,231691,37667
1011393,-114469,-107351,37902,315169,164514,-115529,227165,-119478,-115583,65370,231583,37668
1011394,-114520,-107383,37872,315055,164603,-115575,227118,-119513,-115627,65345,231590,37639
1011395,-114539,-107394,37853,315017,164582,-115583,227054,-119539,-115637,65314,231631,37619
1011396,-114576,-107398,37848,315041,164532,-115590,227012,-119587,-115646,65253,231564,37612
1011397,-114600,-107393,37851,315066,164492,-115611,226977,-119614,-115666,65295,231434,37616
1011398,-114603,-107385,37845,315006,164528,-115581,226905,-119632,-115636,65320,231353,37608
1011399,-114609,-107367,37878,315057,164488,-115590,226860,-119627,-115642,65302,231332,37642
1011400,-114588,-107349,37898,315088,164507,-115613,226880,-119620,-115664,65203,231435,37662
1011401,-114597,-107345,37913,315092,164551,-115594,226881,-119592,-115652,65205,231493,37676
1011402,-114609,-107349,37934,315067,164627,-115590,226897,-119591,-115641,65237,231614,37697
1011403,-114564,-107334,37961,315093,164561,-115537,226928,-119535,-115589,65253,231673,37723
1011404,-114517,-107297,37981,315203,164501,-115562,226906,-119474,-115618,65315,231677,37746
1011405,-114504,-107303,37962,315291,164508,-115566,226944,-119457,-115618,65383,231716,37728
1011406,-114452,-107275,37965,315239,164520,-115547,227112,-119420,-115602,65452,231760,37732
1011407,-114454,-107230,37952,315262,164471,-115480,227222,-119387,-115532,65495,231721,37718
1011408,-114492,-107199,38003,315340,164533,-115427,227242,-119391,-115480,65492,231713,37767
1011409,-114511,-107193,38028,315333,164579,-115350,227245,-119412,-115403,65511,231715,37795
1011410,-114524,-107208,38006,315262,164661,-115286,227244,-119420,-115337,65550,231717,37772
1011411,-114495,-107224,37996,315325,164618,-115315,227202,-119438,-115369,65528,231643,37759
1011412,-114506,-107235,37971,315380,164556,-115329,227099,-119457,-115381,65477,231618,37736
1011413,-114535,-107277,37923,315347,164559,-115399,227022,-119516,-115451,65433,231657,37689
1011414,-114533,-107324,37925,315299,164575,-115458,226949,-119546,-115512,65409,231677,37689
1011415,-114539,-107315,37921,315296,164582,-115556,226837,-119556,-115610,65367,231722,37683
1011416,-114576,-107336,37894,315209,164506,-115630,226781,-119541,-115682,65367,231746,37656
1011417,-114603,-107333,37865,315173,164517,-115640,226783,-119512,-115689,65395,231649,37630
1011418,-114641,-107339,37854,315189,164520,-115621,226711,-119515,-115672,65394,231577,37618
1011419,-114660,-107361,37863,315198,164535,-115584,226714,-119528,-115635,65351,231634,37626
1011420,-114706,-107405,37885,315191,164520,-115516,226794,-119543,-115570,65351,231716,37652
1011421,-114707,-107392,37914,315197,164513,-115448,226807,-119546,-115502,65382,231735,37679
1011422,-114684,-107386,37925,315178,164514,-115396,226832,-119511,-115450,65442,231735,37689
1011423,-114652,-107411,37948,315180,164548,-115389,226922,-119497,-115441,65460,231810,37711
1011424,-114607,-107383,37979,315194,164571,-115389,227019,-119493,-115441,65466,231868,37750
1011425,-114553,-107378,37990,315218,164539,-115355,227035,-119456,-115407,65485,231924,37753
1011426,-114501,-107341,38022,315242,164501,-115319,227113,-119417,-115372,65556,231978,37789
1011427,-114469,-107313,38020,315290,164464,-115330,227198,-119393,-115383,65580,231987,37785
1011428,-114406,-107289,38024,315267,164501,-115283,227246,-119362,-115333,65651,231990,37788
1011429,-114402,-107259,38054,315236,164644,-115243,227292,-119361,-115295,65655,231856,37817
1011430,-114399,-107257,38076,315298,164651,-115219,227329,-119368,-115273,65631,231714,37844
1011431,-114423,-107269,38079,315274,164552,-115239,227289,-119395,-115290,65618,231791,37845
1011432,-114473,-107279,38092,315281,164499,-115290,227239,-119412,-115345,65575,231754,37860
1011433,-114514,-107281,38066,315338,164497,-115317,227208,-119441,-115372,65526,231575,37831
1011434,-114552,-107316,38000,315322,164491,-115337,227170,-119454,-115392,65497,231515,37764
1011435,-114569,-107327,37943,315315,164451,-115363,227077,-119482,-115415,65429,231668,37709
1011436,-114613,-107344,37911,315222,164385,-115377,226977,-119498,-115431,65405,231804,37676
1011437,-114652,-107370,37923,315205,164372,-115383,226944,-119496,-115435,65415,231820,37692
1011438,-114693,-107377,37916,315178,164397,-115374,226882,-119501,-115429,65424,231807,37680
1011439,-114693,-107405,37908,315182,164518,-115374,226829,-119502,-115429,65378,231786,37673
1011440,-114694,-107402,37899,315150,164601,-115346,226818,-119449,-115403,65381,231767,37667
1011441,-114669,-107400,37891,315160,164682,-115329,226827,-119422,-115381,65421,231678,37656
1011442,-114625,-107374,37930,315192,164706,-115323,226869,-119401,-115376,65420,231654,37695
1011443,-114620,-107369,37912,315265,164706,-115325,226923,-119383,-115379,65445,231735,37679
1011444,-114603,-107349,37953,315310,164716,-115277,227015,-119352,-115329,65442,231735,37717
1011445,-114579,-107328,37991,315337,164737,-115259,227099,-119325,-115313,65460,231614,37755
1011446,-114538,-107304,38035,315380,164760,-115237,227181,-119295,-115286,65536,231550,37800
1011447,-114511,-107274,38055,315412,164798,-115230,227208,-119311,-115286,65543,231684,37817
1011448,-114454,-107237,38115,315472,164812,-115230,227207,-119310,-115284,65554,231725,37884
1011449,-114453,-107220,38138,315458,164781,-115173,227226,-119273,-115224,65548,231711,37903
1011450,-114451,-107242,38093,315386,164692,-115164,227258,-119251,-115216,65595,231769,37858
1011451,-114468,-107252,38051,315286,164595,-115188,227254,-119243,-115240,65583,231900,37816
1011452,-114496,-107287,37987,315268,164617,-115223,227177,-119239,-115274,65580,231875,37752
1011453,-114514,-107293,37902,315250,164576,-115228,227041,-119265,-115280,65613,231841,37667
1011454,-114527,-107308,37831,315197,164538,-115268,226887,-119308,-115322,65637,231920,37595
1011455,-114530,-107327,37804,315151,164517,-115271,226809,-119337,-115321,65625,231968,37571
1011456,-114584,-107375,37807,315088,164535,-115263,226807,-119339,-115319,65568,231850,37572
1011457,-114634,-107411,37819,315014,164572,-115247,226809,-119357,-115302,65553,231856,37586
1011458,-114677,-107423,37853,315040,164572,-115246,226803,-119373,-115301,65497,231799,37619
1011459,-114659,-107438,37876,315108,164475,-115269,226861,-119413,-115324,65447,231798,37642
1011460,-114614,-107427,37896,315137,164323,-115268,226991,-119426,-115323,65432,231825,37662
1011461,-114588,-107398,37922,315130,164249,-115326,227066,-119416,-115375,65453,231859,37686
1011462,-114573,-107393,37882,315043,164368,-115364,227107,-119363,-115418,65526,231895,37647
1011463,-114576,-107387,37854,315054,164549,-115380,227119,-119352,-115433,65571,231912,37616
1011464,-114526,-107349,37858,315128,164678,-115351,227082,-119355,-115406,65555,231946,37623
1011465,-114477,-107327,37901,315210,164620,-115333,227039,-119326,-115389,65571,231907,37665
1011466,-114432,-107280,37988,315278,164680,-115295,227103,-119324,-115346,65584,231843,37751
1011467,-114421,-107265,38018,315239,164788,-115253,227155,-119297,-115306,65609,231801,37783
1011468,-114403,-107242,38034,315299,164840,-115204,227187,-119262,-115258,65582,231798,37799
1011469,-114381,-107237,38028,315385,164721,-115188,227235,-119245,-115244,65568,231812,37793
1011470,-114395,-107246,38019,315451,164664,-115197,227254,-119304,-115248,65535,231875,37784
1011471,-114423,-107280,37959,315448,164667,-115191,227218,-119335,-115243,65552,231853,37723
1011472,-114445,-107293,37946,315411,164672,-115179,227152,-119332,-115233,65524,231769,37711
1011473,-114479,-107290,37900,315293,164558,-115190,227140,-119339,-115243,65535,231696,37662
1011474,-114494,-107290,37847,315191,164368,-115191,227115,-119315,-115246,65597,231519,37612
1011475,-114473,-107308,37844,315104,164315,-115210,227037,-119307,-115264,65670,231404,37609
1011476,-114523,-107345,37813,315038,164374,-115274,226927,-119357,-115328,65628,231533,37580
1011477,-114569,-107374,37806,315023,164372,-115314,226861,-119404,-115366,65540,231729,37568
1011478,-114592,-107370,37786,315054,164346,-115332,226796,-119423,-115384,65497,231710,37553
1011479,-114597,-107368,37801,315063,164297,-115329,226825,-119408,-115384,65472,231655,37566
1011480,-114607,-107370,37783,315062,164341,-115310,226870,-119386,-115361,65448,231623,37552
1011481,-114613,-107366,37807,315093,164362,-115298,226919,-119353,-115352,65451,231626,37574
1011482,-114588,-107381,37781,315116,164343,-115284,226963,-119348,-115339,65457,231710,37548
1011483,-114577,-107365,37784,315134,164372,-115270,227019,-119334,-115326,65473,231783,37551
1011484,-114558,-107364,37805,315139,164485,-115285,227106,-119308,-115337,65454,231776,37569
1011485,-114510,-107343,37848,315173,164582,-115317,227134,-119309,-115366,65431,231750,37615
1011486,-114464,-107311,37946,315301,164685,-115323,227124,-119302,-115377,65490,231662,37713
1011487,-114483,-107288,37964,315344,164756,-115303,227105,-119285,-115354,65561,231599,37730
1011488,-114495,-107275,37986,315326,164849,-115301,227112,-119273,-115355,65634,231676,37751
1011489,-114487,-107272,37994,315238,164837,-115284,227161,-119301,-115337,65677,231792,37760
1011490,-114445,-107260,37973,315237,164748,-115302,227249,-119352,-115355,65631,231802,37736
1011491,-114421,-107268,37937,315226,164679,-115316,227264,-119375,-115370,65586,231758,37701
1011492,-114437,-107285,37874,315138,164673,-115342,227231,-119405,-115391,65554,231778,37641
1011493,-114457,-107311,37853,315051,164572,-115345,227195,-119420,-115397,65438,231771,37623
1011494,-114468,-107324,37880,315084,164392,-115345,227160,-119420,-115398,65379,231611,37645
1011495,-114508,-107340,37871,315113,164181,-115357,227130,-119426,-115410,65401,231661,37636
1011496,-114527,-107381,37838,315061,164139,-115393,227085,-119452,-115448,65356,231666,37605
1011497,-114540,-107379,37844,314977,164258,-115415,227045,-119450,-115468,65392,231506,37606
1011498,-114561,-107372,37835,314960,164337,-115524,227016,-119416,-115575,65324,231362,37600
1011499,-114563,-107385,37819,315018,164368,-115595,227003,-119362,-115649,65290,231300,37583
1011500,-114557,-107383,37813,315068,164344,-115650,227028,-119328,-115701,65334,231264,37577
1011501,-114567,-107382,37809,315114,164356,-115703,227012,-119337,-115755,65335,231422,37573
1011502,-114550,-107398,37784,315095,164482,-115669,226988,-119369,-115720,65338,231524,37552
1011503,-114552,-107399,37794,315099,164668,-115559,226945,-119397,-115613,65379,231505,37559
1011504,-114509,-107388,37792,315164,164729,-115434,226905,-119415,-115486,65321,231588,37558
1011505,-114490,-107368,37797,315132,164722,-115388,226968,-119456,-115441,65273,231767,37562
1011506,-114494,-107319,37820,315073,164586,-115295,227085,-119406,-115348,65363,231907,37583
1011507,-114485,-107309,37837,315073,164435,-115255,227139,-119357,-115310,65490,231997,37601
1011508,-114457,-107295,37896,315085,164278,-115195,227189,-119308,-115247,65600,232001,37663
1011509,-114429,-107294,37918,315030,164171,-115163,227232,-119283,-115217,65668,232037,37686
1011510,-114448,-107308,37906,315002,164139,-115180,227207,-119323,-115236,65691,232126,37670
1011511,-114437,-107332,37845,314995,164185,-115208,227124,-119345,-115264,65712,232120,37611
1011512,-114478,-107346,37814,315039,164201,-115268,227037,-119363,-115320,65684,232057,37580
1011513,-114534,-107395,37781,315048,164310,-115340,226999,-119417,-115395,65610,231995,37545
1011514,-114569,-107414,37729,315002,164406,-115397,226980,-119435,-115451,65499,231879,37492
1011515,-114553,-107419,37741,315013,164421,-115420,226959,-119440,-115473,65411,231751,37507
1011516,-114583,-107420,37757,315037,164304,-115433,226923,-119460,-115483,65369,231636,37522
1011517,-114579,-107446,37745,315039,164302,-115441,226931,-119471,-115495,65327,231527,37510
1011518,-114598,-107461,37692,315030,164362,-115454,226916,-119494,-115505,65260,231488,37458
1011519,-114600,-107464,37679,315017,164377,-115458,226899,-119501,-115514,65229,231497,37443
1011520,-114628,-107452,37699,315015,164381,-115447,226865,-119495,-115500,65286,231516,37468
1011521,-114598,-107429,37730,315022,164384,-115460,226945,-119486,-115513,65334,231492,37493
1011522,-114564,-107417,37763,315085,164393,-115428,227041,-119472,-115479,65377,231318,37530
1011523,-114527,-107405,37775,315101,164484,-115382,227065,-119449,-115434,65388,231274,37540
1011524,-114487,-107385,37807,315118,164570,-115373,227093,-119460,-115422,65395,231367,37575
1011525,-114434,-107372,37834,315144,164599,-115337,227142,-119435,-115389,65401,231314,37598
1011526,-114405,-107334,37856,315235,164626,-115310,227180,-119383,-115363,65467,231254,37623
1011527,-114393,-107309,37863,315236,164666,-115290,227130,-119366,-115344,65506,231447,37629
1011528,-114392,-107289,37882,315250,164671,-115298,227103,-119361,-115351,65492,231691,37643
1011529,-114394,-107274,37930,315242,164622,-115287,227115,-119325,-115339,65480,231800,37693
1011530,-114393,-107275,37931,315286,164592,-115324,227136,-119337,-115374,65451,231834,37700
1011531,-114418,-107287,37974,315312,164543,-115390,227127,-119354,-115444,65431,231772,37739
1011532,-114442,-107305,37965,315173,164411,-115379,227159,-119346,-115431,65459,231719,37733
1011533,-114492,-107342,37974,315070,164330,-115389,227187,-119372,-115441,65402,231729,37742
1011534,-114522,-107358,37955,315025,164365,-115413,227154,-119438,-115468,65368,231660,37719
1011535,-114499,-107356,37910,314952,164365,-115401,227106,-119472,-115453,65361,231593,37676
1011536,-114553,-107390,37878,314974,164358,-115389,227031,-119482,-115442,65387,231466,37643
1011537,-114619,-107414,37834,314970,164387,-115398,226961,-119510,-115450,65430,231496,37596
1011538,-114653,-107439,37824,315021,164393,-115432,226855,-119513,-115484,65482,231434,37589
1011539,-114666,-107443,37815,315074,164418,-115443,226787,-119512,-115495,65487,231410,37582
1011540,-114681,-107443,37822,315130,164326,-115436,226826,-119493,-115488,65460,231517,37589
1011541,-114685,-107429,37808,315184,164277,-115444,226910,-119495,-115496,65366,231754,37572
1011542,-114656,-107404,37830,315248,164282,-115446,226938,-119493,-115501,65346,231826,37594
1011543,-114594,-107408,37823,315216,164350,-115432,226995,-119479,-115484,65397,231848,37590
1011544,-114516,-107383,37800,315141,164421,-115404,227063,-119443,-115459,65421,231883,37567
1011545,-114472,-107361,37815,315029,164455,-115370,227062,-119417,-115419,65451,231994,37580
1011546,-114403,-107342,37863,314974,164407,-115315,227100,-119367,-115367,65556,232063,37629
1011547,-114361,-107310,37965,315015,164390,-115338,227146,-119329,-115392,65615,231992,37731
1011548,-114347,-107269,38021,315111,164422,-115302,227143,-119287,-115352,65677,231850,37789
1011549,-114334,-107267,38064,315158,164444,-115289,227155,-119257,-115343,65713,231756,37829
1011550,-114370,-107293,38070,315193,164454,-115277,227180,-119261,-115331,65683,231769,37835
1011551,-114394,-107290,38070,315206,164479,-115300,227206,-119320,-115354,65585,231802,37832
1011552,-114406,-107300,38055,315147,164465,-115324,227178,-119375,-115379,65549,231772,37821
1011553,-114470,-107316,38020,315148,164526,-115373,227124,-119439,-115429,65478,231739,37786
1011554,-114537,-107354,37973,315144,164588,-115417,227074,-119460,-115473,65430,231668,37740
1011555,-114568,-107350,37958,315197,164560,-115443,227040,-119494,-115498,65418,231629,37722
1011556,-114648,-107387,37927,315160,164515,-115453,227029,-119509,-115507,65380,231614,37694
1011557,-114673,-107412,37901,315130,164538,-115452,227012,-119544,-115504,65349,231640,37667
1011558,-114665,-107426,37875,315130,164598,-115477,226975,-119566,-115530,65277,231573,37642
1011559,-114619,-107417,37890,315136,164573,-115466,226972,-119553,-115519,65267,231446,37654
1011560,-114570,-107411,37899,315123,164518,-115448,226976,-119532,-115500,65323,231438,37665
1011561,-114542,-107399,37896,315170,164545,-115405,226941,-119518,-115458,65362,231458,37660
1011562,-114527,-107370,37912,315246,164537,-115395,226998,-119507,-115449,65370,231408,37674
1011563,-114465,-107353,37894,315279,164445,-115373,227066,-119494,-115426,65422,231474,37660
1011564,-114426,-107331,37938,315262,164289,-115343,227146,-119454,-115396,65488,231571,37705
1011565,-114416,-107300,37982,315338,164090,-115320,227213,-119435,-115371,65585,231640,37747
1011566,-114406,-107310,37971,315334,164260,-115311,227248,-119408,-115366,65624,231797,37738
1011567,-114402,-107312,37988,315318,164503,-115292,227255,-119408,-115344,65612,231821,37755
1011568,-114385,-107309,38043,315324,164605,-115263,227254,-119405,-115318,65631,231938,37806
1011569,-114375,-107280,38110,315212,164529,-115241,227271,-119389,-115294,65613,232108,37874
1011570,-114369,-107281,38117,315138,164381,-115258,227316,-119354,-115312,65671,232122,37881
1011571,-114364,-107275,38069,315151,164364,-115303,227288,-119344,-115357,65694,231992,37837
1011572,-114426,-107296,37970,315161,164536,-115408,227207,-119375,-115463,65612,231993,37736
1011573,-114488,-107319,37908,315178,164676,-115498,227116,-119423,-115551,65553,231986,37675
1011574,-114517,-107360,37905,315257,164681,-115524,227027,-119455,-115577,65490,231874,37671
1011575,-114526,-107371,37946,315287,164656,-115526,226994,-119502,-115578,65463,231748,37710
1011576,-114572,-107396,37926,315250,164630,-115454,226960,-119536,-115507,65461,231654,37693
1011577,-114586,-107404,37959,315201,164623,-115382,226944,-119517,-115438,65417,231488,37724
1011578,-114583,-107395,37963,315148,164503,-115330,226977,-119504,-115381,65416,231330,37728
1011579,-114552,-107380,37971,315098,164422,-115330,227000,-119496,-115380,65445,231224,37739
1011580,-114547,-107384,37952,315052,164414,-115353,227022,-119489,-115406,65431,231380,37716
1011581,-114538,-107400,37952,315026,164386,-115347,227009,-119486,-115401,65468,231563,37717
1011582,-114519,-107395,37945,315116,164259,-115341,227028,-119472,-115395,65523,231698,37714
1011583,-114516,-107386,37947,315155,164316,-115334,227040,-119465,-115388,65585,231745,37714
1011584,-114536,-107370,37949,315119,164405,-115291,227029,-119432,-115345,65693,231800,37716
1011585,-114529,-107352,37971,315177,164436,-115300,227036,-119406,-115352,65703,231869,37733
1011586,-114509,-107330,38006,315268,164592,-115312,227146,-119392,-115364,65634,231906,37769
1011587,-114427,-107288,38012,315356,164664,-115282,227216,-119361,-115335,65599,231743,37773
1011588,-114386,-107260,38015,315381,164816,-115279,227263,-119351,-115332,65576,231698,37783
1011589,-114367,-107268,38001,315387,164972,-115311,227206,-119398,-115364,65553,231865,37770
1011590,-114377,-107274,38013,315324,164939,-115298,227156,-119382,-115352,65568,231931,37781
1011591,-114385,-107275,38044,315368,164842,-115297,227118,-119373,-115348,65565,231810,37810
1011592,-114424,-107316,38053,315389,164724,-115327,227090,-119395,-115382,65528,231782,37822
1011593,-114495,-107352,38002,315359,164622,-115380,227096,-119400,-115433,65522,231736,37768
1011594,-114514,-107350,37956,315370,164555,-115462,227024,-119410,-115515,65530,231682,37722
1011595,-114515,-107362,37935,315315,164439,-115466,226990,-119407,-115520,65540,231703,37702
1011596,-114552,-107386,37925,315227,164353,-115483,226998,-119451,-115535,65496,231742,37692
1011597,-114595,-107389,37896,315200,164289,-115467,226973,-119481,-115519,65451,231798,37660
1011598,-114652,-107409,37859,315191,164263,-115469,226944,-119500,-115523,65466,231816,37626
1011599,-114660,-107449,37821,315130,164431,-115492,226953,-119531,-115541,65385,231836,37589
1011600,-114645,-107455,37880,315172,164589,-115515,226963,-119558,-115568,65341,231806,37649
1011601,-114640,-107449,37929,315262,164648,-115528,226957,-119543,-115580,65321,231751,37693
1011602,-114630,-107420,37986,315347,164701,-115526,226968,-119522,-115582,65320,231683,37753
1011603,-114585,-107411,38014,315400,164801,-115526,227012,-119522,-115580,65323,231643,37782
1011604,-114536,-107392,37994,315403,164843,-115438,227104,-119494,-115491,65312,231654,37759
1011605,-114481,-107351,38005,315383,164765,-115401,227146,-119481,-115454,65341,231723,37773
1011606,-114426,-107296,38053,315406,164619,-115361,227192,-119451,-115414,65428,231825,37819
1011607,-114389,-107268,38050,315400,164628,-115324,227186,-119428,-115379,65563,231781,37816
1011608,-114371,-107253,38056,315406,164645,-115277,227217,-119393,-115333,65721,231669,37822
1011609,-114354,-107238,38075,315412,164639,-115259,227276,-119388,-115314,65745,231646,37841
1011610,-114325,-107258,38116,315476,164573,-115284,227307,-119389,-115337,65702,231537,37883
1011611,-114325,-107275,38127,315460,164504,-115310,227289,-119410,-115364,65683,231570,37893
1011612,-114378,-107312,38093,315320,164525,-115369,227206,-119432,-115422,65703,231671,37857
1011613,-114464,-107355,38063,315260,164580,-115458,227108,-119484,-115512,65655,231849,37825
1011614,-114507,-107373,38039,315254,164586,-115495,227010,-119519,-115548,65575,231882,37801
1011615,-114539,-107353,38025,315250,164541,-115478,226935,-119535,-115529,65531,231820,37791
1011616,-114555,-107390,37972,315243,164525,-115471,226843,-119529,-115523,65507,231742,37736
1011617,-114567,-107384,37996,315211,164458,-115465,226756,-119526,-115519,65523,231717,37759
1011618,-114575,-107400,37973,315121,164363,-115510,226759,-119552,-115563,65463,231828,37736
1011619,-114583,-107397,37935,315085,164386,-115531,226819,-119533,-115585,65395,231843,37700
1011620,-114552,-107366,37952,315089,164432,-115528,226900,-119507,-115582,65393,231671,37719
1011621,-114523,-107345,37980,315063,164397,-115481,226966,-119470,-115535,65407,231601,37743
1011622,-114493,-107353,37956,315064,164465,-115432,227023,-119465,-115484,65339,231647,37723
1011623,-114464,-107362,37938,315085,164601,-115340,227133,-119439,-115395,65352,231472,37702
1011624,-114449,-107343,37936,315175,164731,-115324,227093,-119442,-115378,65427,231481,37704
1011625,-114450,-107334,37975,315285,164799,-115333,226987,-119457,-115385,65433,231621,37742
1011626,-114433,-107330,37999,315279,164824,-115339,226979,-119434,-115392,65513,231860,37763
1011627,-114445,-107321,38006,315297,164844,-115340,227046,-119413,-115394,65599,231926,37773
1011628,-114463,-107303,38049,315347,164892,-115304,227068,-119376,-115359,65630,231922,37812
1011629,-114464,-107307,38064,315381,164903,-115343,227084,-119336,-115394,65635,231959,37829
1011630,-114477,-107299,38070,315377,164839,-115377,227155,-119304,-115429,65619,232001,37837
1011631,-114462,-107289,38046,315370,164687,-115404,227193,-119309,-115458,65620,231960,37808
1011632,-114486,-107299,38000,315390,164560,-115383,227165,-119344,-115436,65642,231830,37765
1011633,-114510,-107330,37941,315378,164530,-115392,227080,-119356,-115443,65621,231744,37708
1011634,-114532,-107378,37904,315334,164503,-115409,227037,-119364,-115463,65590,231658,37670
1011635,-114548,-107389,37900,315253,164434,-115394,227062,-119367,-115448,65538,231621,37667
1011636,-114593,-107398,37894,315242,164449,-115402,227014,-119397,-115457,65480,231515,37658
1011637,-114630,-107398,37884,315213,164466,-115357,227004,-119413,-115413,65486,231387,37645
1011638,-114663,-107435,37815,315097,164415,-115345,226987,-119450,-115397,65467,231545,37578
1011639,-114646,-107438,37770,314996,164414,-115323,226918,-119469,-115375,65441,231733,37536
1011640,-114643,-107432,37794,315009,164487,-115329,226866,-119475,-115380,65454,231747,37557
1011641,-114628,-107426,37814,315008,164502,-115354,226890,-119428,-115406,65486,231763,37580
1011642,-114634,-107411,37853,315070,164471,-115330,226888,-119391,-115382,65508,231790,37617
1011643,-114576,-107407,37863,315109,164448,-115312,226947,-119347,-115368,65552,231772,37628
1011644,-114546,-107405,37902,315070,164468,-115264,227027,-119318,-115315,65585,231791,37668
1011645,-114519,-107398,37930,315108,164490,-115260,227134,-119318,-115312,65568,231817,37696
1011646,-114474,-107375,37974,315166,164603,-115246,227203,-119326,-115302,65544,231887,37738
1011647,-114483,-107358,37968,315216,164619,-115251,227221,-119314,-115306,65607,231969,37731
1011648,-114483,-107337,37997,315260,164573,-115236,227261,-119290,-115289,65693,232067,37762
1011649,-114473,-107304,38048,315304,164549,-115227,227259,-119286,-115280,65722,231988,37815
1011650,-114421,-107298,38071,315248,164580,-115209,227283,-119256,-115263,65737,231816,37838
1011651,-114424,-107293,38068,315224,164607,-115242,227219,-119270,-115293,65736,231711,37832
1011652,-114434,-107319,38030,315176,164566,-115283,227121,-119320,-115336,65653,231820,37797
1011653,-114437,-107339,38025,315120,164499,-115315,227050,-119363,-115365,65610,231809,37791
1011654,-114490,-107345,38002,315044,164435,-115344,227010,-119380,-115396,65603,231773,37769
1011655,-114513,-107369,37934,315091,164386,-115367,226991,-119398,-115416,65573,231775,37698
1011656,-114546,-107410,37896,315099,164378,-115361,226970,-119418,-115416,65552,231687,37660
1011657,-114545,-107414,37910,315104,164418,-115371,226951,-119434,-115427,65485,231617,37675
1011658,-114572,-107406,37916,315070,164440,-115374,226909,-119417,-115427,65459,231503,37682
1011659,-114572,-107409,37932,315051,164510,-115377,226861,-119423,-115432,65447,231394,37699
1011660,-114573,-107385,37968,315048,164557,-115378,226908,-119401,-115431,65411,231364,37734
1011661,-114572,-107350,38024,315061,164513,-115437,226965,-119400,-115492,65462,231351,37790
