Timestamp (ms),Ch0 (uV),Ch1 (uV),Ch2 (uV),Ch3 (uV),Ch4 (uV),Ch5 (uV),Ch6 (uV),Ch7 (uV),Ch8 (uV),Ch9 (uV),Ch10 (uV),Ch11 (uV)
1007838,-116016,-106929,40327,318898,165369,-115501,225729,-120469,-115557,65729,233084,40093
1007839,-116038,-106942,40290,318864,165379,-115513,225712,-120461,-115566,65713,233101,40054
1007840,-116022,-106943,40308,318893,165461,-115537,225681,-120484,-115590,65681,233038,40071
1007841,-116041,-106930,40347,318957,165566,-115550,225696,-120468,-115604,65644,232965,40112
1007842,-116070,-106941,40336,319017,165674,-115534,225717,-120446,-115585,65644,232986,40102
1007843,-116067,-106924,40324,319124,165634,-115504,225728,-120424,-115557,65668,233078,40087
1007844,-116000,-106919,40287,319156,165558,-115495,225762,-120388,-115546,65739,233136,40054
1007845,-115937,-106894,40252,319045,165665,-115489,225797,-120375,-115542,65776,233220,40020
1007846,-115904,-106877,40277,318970,165808,-115485,225850,-120362,-115537,65755,233364,40041
1007851,-115876,-106813,40524,319218,165879,-115419,225943,-120296,-115471,65878,233174,40287
1007854,-115918,-106850,40374,319164,165917,-115469,225842,-120337,-115520,65660,232933,40136
1007855,-115929,-106868,40394,319196,165894,-115472,225803,-120381,-115524,65631,232793,40159
1007856,-115950,-106859,40430,319215,165792,-115454,225703,-120369,-115509,65669,232535,40197
1007857,-115983,-106896,40434,319178,165711,-115464,225596,-120403,-115519,65700,232660,40196
1007858,-116005,-106934,40422,319107,165725,-115505,225543,-120445,-115559,65593,232930,40186
1007859,-116039,-106951,40376,319057,165773,-115517,225516,-120481,-115568,65504,233102,40142
1007860,-116053,-106969,40361,319013,165671,-115519,225528,-120475,-115572,65572,233271,40127
1007861,-116040,-106964,40389,319026,165457,-115522,225577,-120474,-115574,65634,233351,40158
1007862,-116015,-106943,40412,319008,165288,-115499,225586,-120437,-115552,65689,233544,40178
1007863,-116006,-106908,40432,318963,165191,-115446,225622,-120373,-115500,65768,233547,40196
1007864,-116022,-106899,40391,318886,165357,-115415,225736,-120339,-115466,65842,233509,40156
1007865,-115987,-106889,40352,318960,165556,-115437,225755,-120344,-115492,65854,233453,40119
1007866,-115954,-106862,40354,319105,165693,-115423,225773,-120331,-115475,65878,233424,40121
1007867,-115934,-106840,40382,319184,165744,-115429,225840,-120331,-115479,65888,233445,40146
1007868,-115906,-106806,40435,319225,165834,-115432,225876,-120302,-115489,65907,233442,40201
1007869,-115894,-106787,40516,319210,165913,-115498,225920,-120290,-115552,65892,233495,40280
1007870,-115925,-106773,40584,319203,165988,-115513,225900,-120285,-115565,65882,233501,40346
1007871,-115903,-106752,40628,319235,166036,-115520,225847,-120311,-115573,65870,233386,40390
1007872,-115920,-106785,40599,319228,166026,-115514,225825,-120314,-115566,65821,233332,40364
1007873,-115937,-106809,40568,319200,165997,-115566,225815,-120335,-115617,65764,233236,40331
1007874,-115962,-106826,40517,319177,165948,-115610,225768,-120372,-115666,65752,233157,40281
1007875,-115981,-106831,40494,319114,165804,-115615,225784,-120369,-115665,65736,233140,40259
1007876,-115996,-106836,40494,319124,165622,-115612,225822,-120360,-115664,65710,232970,40260
1007877,-115991,-106816,40508,319045,165516,-115590,225818,-120365,-115644,65680,232895,40273
1007878,-115969,-106826,40543,318921,165470,-115579,225775,-120406,-115636,65648,232952,40304
1007879,-115984,-106835,40553,318922,165372,-115579,225746,-120424,-115633,65621,232985,40317
1007880,-115989,-106835,40534,318921,165300,-115531,225753,-120401,-115586,65653,233023,40298
1007881,-116018,-106868,40500,318846,165433,-115484,225725,-120406,-115537,65732,233100,40265
1007882,-116011,-106872,40487,318849,165650,-115451,225715,-120412,-115504,65784,233072,40251
1007883,-115942,-106866,40508,318965,165799,-115434,225733,-120384,-115488,65772,232865,40273
1007884,-115938,-106850,40540,319099,165911,-115416,225794,-120365,-115469,65789,232694,40305
1007885,-115934,-106824,40577,319220,166013,-115423,225775,-120374,-115476,65732,232751,40343
1007886,-115939,-106784,40596,319348,166115,-115416,225799,-120359,-115471,65698,232853,40360
1007887,-115908,-106768,40620,319389,166142,-115396,225861,-120331,-115448,65761,232899,40384
1007888,-115881,-106779,40607,319383,166105,-115365,225897,-120328,-115418,65830,233047,40370
1007889,-115871,-106771,40567,319374,165989,-115330,225935,-120295,-115383,65922,233312,40333
1007890,-115853,-106761,40555,319397,165841,-115339,225951,-120291,-115394,65928,233475,40315
1007891,-115848,-106756,40549,319396,165738,-115352,225917,-120317,-115404,65910,233651,40316
1007892,-115851,-106780,40524,319306,165662,-115394,225942,-120316,-115450,65889,233672,40289
1007893,-115849,-106793,40518,319201,165545,-115430,225917,-120334,-115481,65878,233716,40282
1007894,-115883,-106793,40541,319125,165428,-115443,225861,-120332,-115494,65887,233655,40305
1007895,-115933,-106814,40525,319007,165532,-115439,225800,-120323,-115492,65913,233582,40287
1007896,-115958,-106819,40506,318926,165614,-115447,225741,-120319,-115504,65847,233461,40267
1007897,-115967,-106822,40490,318982,165641,-115460,225684,-120344,-115515,65754,233382,40254
1007898,-115966,-106822,40469,318957,165659,-115432,225664,-120337,-115486,65715,233338,40233
1007899,-115976,-106825,40442,318939,165618,-115393,225633,-120305,-115447,65720,233216,40204
1007900,-115960,-106828,40461,319037,165683,-115373,225631,-120293,-115427,65726,233003,40225
1007901,-115952,-106834,40479,319128,165836,-115420,225690,-120323,-115475,65686,232965,40242
1007902,-115943,-106834,40478,319193,166000,-115464,225700,-120344,-115519,65639,233013,40242
1007903,-115926,-106800,40516,319215,165980,-115420,225736,-120294,-115473,65764,232918,40282
1007904,-115898,-106779,40560,319218,165936,-115373,225823,-120270,-115426,65805,232917,40327
1007905,-115860,-106745,40658,319240,165916,-115360,225898,-120231,-115416,65765,232847,40421
1007906,-115802,-106701,40727,319276,165967,-115399,225982,-120186,-115450,65805,232791,40490
1007907,-115805,-106717,40662,319338,166022,-115397,225999,-120181,-115450,65810,233057,40425
1007908,-115787,-106694,40657,319345,166155,-115408,226018,-120189,-115461,65759,233303,40420
1007909,-115789,-106687,40663,319392,166172,-115382,225958,-120195,-115435,65810,233442,40428
1007910,-115792,-106683,40646,319359,166078,-115326,225912,-120200,-115379,65875,233606,40412
1007911,-115798,-106673,40625,319373,165933,-115310,225902,-120229,-115359,65940,233703,40389
1007912,-115842,-106703,40628,319388,165779,-115306,225906,-120244,-115360,65910,233767,40393
1007913,-115845,-106721,40627,319322,165771,-115329,225861,-120260,-115384,65912,233639,40390
1007914,-115842,-106754,40606,319194,165867,-115373,225799,-120267,-115429,65907,233512,40369
1007915,-115849,-106772,40586,319165,165875,-115410,225777,-120281,-115461,65848,233473,40348
1007916,-115875,-106773,40572,319151,165780,-115433,225774,-120307,-115484,65846,233398,40338
1007917,-115914,-106772,40557,319109,165618,-115399,225748,-120289,-115451,65884,233369,40322
1007918,-115947,-106800,40528,319016,165625,-115379,225757,-120281,-115430,65881,233386,40295
1007919,-115985,-106820,40497,318986,165646,-115404,225766,-120292,-115460,65908,233421,40259
1007920,-115964,-106791,40544,318981,165607,-115426,225775,-120298,-115479,65912,233415,40308
1007921,-115913,-106775,40574,318954,165654,-115462,225827,-120282,-115513,65956,233343,40339
1007922,-115866,-106792,40588,318952,165674,-115441,225885,-120239,-115494,65971,233314,40351
1007923,-115831,-106770,40587,319066,165669,-115434,225891,-120222,-115488,65962,233434,40352
1007924,-115793,-106771,40563,319090,165691,-115407,225916,-120208,-115461,65987,233509,40327
1007925,-115752,-106760,40577,319221,165685,-115348,225904,-120186,-115402,65985,233506,40345
1007926,-115730,-106728,40603,319308,165742,-115265,225904,-120149,-115320,66031,233489,40367
1007927,-115674,-106704,40619,319369,165859,-115185,225996,-120120,-115237,65982,233387,40382
1007928,-115647,-106664,40605,319470,166094,-115171,226041,-120108,-115225,65894,233273,40370
1007929,-115609,-106609,40650,319567,166139,-115162,226115,-120063,-115215,65752,233166,40415
1007930,-115607,-106576,40704,319633,166151,-115171,226157,-120062,-115225,65738,233035,40468
1007931,-115632,-106586,40685,319523,166159,-115179,226147,-120078,-115230,65790,233116,40451
1007932,-115654,-106619,40668,319358,166083,-115208,226086,-120096,-115263,65838,233246,40431
1007933,-115666,-106627,40622,319314,165982,-115250,225986,-120144,-115301,65863,233318,40388
1007934,-115690,-106637,40590,319224,165895,-115230,225886,-120130,-115282,65995,233092,40354
1007935,-115698,-106663,40594,319185,165807,-115236,225859,-120142,-115292,66018,233058,40355
1007936,-115760,-106720,40587,319126,165842,-115293,225859,-120183,-115350,66009,233110,40351
1007937,-115824,-106764,40572,319091,165904,-115344,225830,-120244,-115395,66007,233248,40340
1007938,-115857,-106775,40541,319111,165898,-115388,225812,-120231,-115439,66001,233312,40305
1007939,-115880,-106790,40465,319124,165798,-115370,225829,-120196,-115425,66034,233386,40229
1007940,-115874,-106788,40409,319085,165743,-115362,225904,-120182,-115414,66042,233480,40175
1007941,-115908,-106793,40403,319063,165780,-115317,225948,-120180,-115369,66032,233587,40166
1007942,-115901,-106787,40413,319023,165854,-115249,225967,-120163,-115304,66022,233643,40178
1007943,-115861,-106766,40465,319052,165823,-115185,226032,-120106,-115238,66076,233597,40226
1007944,-115804,-106728,40520,319138,165771,-115164,226076,-120086,-115216,66106,233632,40285
1007945,-115785,-106715,40577,319175,165874,-115147,226096,-120063,-115200,66105,233667,40345
1007946,-115703,-106685,40621,319227,166041,-115113,226149,-120036,-115168,66148,233618,40385
1007947,-115622,-106643,40688,319335,166072,-115054,226221,-119982,-115108,66229,233508,40451
1007948,-115565,-106596,40726,319494,165991,-115025,226243,-119945,-115080,66223,233569,40491
1007949,-115497,-106538,40750,319588,165933,-114998,226274,-119916,-115051,66231,233665,40519
1007950,-115482,-106534,40703,319543,165982,-114967,226316,-119891,-115019,66284,233734,40467
1007951,-115492,-106546,40633,319417,166097,-114959,226314,-119894,-115010,66311,233786,40397
1007952,-115524,-106565,40615,319396,166180,-114957,226274,-119899,-115012,66192,233777,40379
1007953,-115560,-106579,40637,319351,166253,-115005,226243,-119929,-115057,66066,233707,40402
1007954,-115567,-106597,40702,319257,166274,-115064,226184,-119954,-115114,66043,233572,40464
1007955,-115572,-106598,40763,319132,166223,-115170,226148,-119977,-115222,66085,233541,40531
1007956,-115641,-106602,40798,319064,166083,-115224,226092,-119990,-115277,66127,233548,40560
1007957,-115680,-106603,40819,319139,166029,-115221,226072,-119994,-115274,66093,233306,40583
1007958,-115650,-106602,40802,319246,165913,-115214,226014,-120000,-115268,66065,233220,40567
1007959,-115687,-106612,40745,319293,165780,-115203,225917,-120038,-115258,66045,233398,40508
1007960,-115728,-106629,40674,319281,165857,-115139,225895,-120041,-115192,66062,233418,40438
1007961,-115737,-106616,40624,319243,165905,-115076,225929,-120039,-115130,66046,233419,40391
1007962,-115688,-106610,40626,319274,165901,-115082,226001,-120010,-115135,65968,233411,40390
1007963,-115638,-106599,40664,319317,165873,-115073,226064,-119983,-115128,65941,233386,40428
1007964,-115618,-106582,40673,319289,165888,-115023,226117,-119957,-115081,65996,233404,40438
1007965,-115613,-106588,40695,319287,165984,-115027,226125,-119982,-115078,66067,233428,40462
1007966,-115628,-106581,40721,319342,166071,-115033,226125,-120017,-115084,66192,233557,40486
1007967,-115595,-106550,40774,319383,166128,-115060,226146,-120002,-115112,66257,233579,40540
1007968,-115558,-106533,40798,319432,166140,-115062,226165,-120010,-115115,66255,233612,40562
1007969,-115547,-106530,40829,319461,166162,-115067,226158,-119984,-115123,66299,233650,40593
1007970,-115551,-106515,40847,319498,166203,-115112,226135,-119981,-115163,66247,233702,40612
1007971,-115573,-106517,40859,319513,166222,-115127,226097,-119995,-115180,66225,233657,40624
1007972,-115618,-106525,40851,319493,166198,-115112,226050,-120007,-115166,66242,233540,40616
1007973,-115654,-106543,40813,319411,166120,-115110,226030,-120042,-115166,66229,233497,40579
1007974,-115677,-106560,40795,319381,166068,-115124,225992,-120103,-115178,66158,233483,40557
1007975,-115728,-106572,40780,319396,166063,-115160,225926,-120149,-115209,66099,233468,40547
1007976,-115779,-106578,40762,319399,165979,-115181,225893,-120160,-115237,66007,233420,40524
1007977,-115797,-106564,40774,319392,165913,-115210,225855,-120177,-115264,65963,233337,40536
1007978,-115804,-106579,40780,319347,165826,-115227,225802,-120153,-115281,65964,233331,40543
1007979,-115785,-106570,40790,319286,165744,-115236,225724,-120149,-115289,65941,233358,40553
1007980,-115821,-106582,40768,319200,165752,-115211,225718,-120147,-115263,65977,233470,40534
1007981,-115879,-106587,40717,319156,165746,-115208,225809,-120133,-115263,66036,233572,40484
1007982,-115845,-106588,40642,319207,165790,-115205,225869,-120115,-115256,66047,233549,40405
1007983,-115764,-106558,40614,319226,165845,-115174,225964,-120083,-115229,66050,233438,40376
1007984,-115678,-106543,40665,319262,165842,-115143,226070,-120059,-115196,66089,233224,40430
1007985,-115613,-106526,40758,319328,165771,-115158,226095,-120031,-115209,66118,233100,40524
1007986,-115591,-106526,40860,319339,165913,-115152,226122,-120037,-115205,66106,233188,40626
1007987,-115582,-106502,40892,319351,166057,-115174,226112,-120046,-115227,66069,233358,40659
1007988,-115564,-106486,40953,319417,166092,-115194,226126,-120032,-115249,65993,233485,40715
1007989,-115547,-106468,40962,319484,165998,-115160,226162,-120002,-115212,66038,233519,40723
1007990,-115520,-106461,40981,319541,165891,-115158,226159,-120010,-115210,66087,233510,40747
1007991,-115558,-106490,40932,319432,165904,-115181,226154,-120038,-115234,66121,233688,40697
1007992,-115601,-106513,40888,319328,165976,-115237,226119,-120066,-115287,66089,233763,40656
1007993,-115636,-106533,40847,319319,165965,-115299,226092,-120102,-115355,66021,233706,40609
1007994,-115668,-106557,40842,319264,166000,-115326,226033,-120130,-115378,65962,233598,40606
1007995,-115696,-106571,40806,319199,166025,-115339,225994,-120137,-115394,65884,233531,40571
1007996,-115710,-106576,40782,319214,165997,-115342,225963,-120152,-115394,65888,233286,40546
1007997,-115720,-106593,40799,319247,165821,-115340,225936,-120189,-115393,65910,233196,40563
1007998,-115751,-106598,40773,319243,165819,-115369,225893,-120220,-115422,65879,233249,40537
1007999,-115765,-106613,40715,319182,165922,-115354,225814,-120234,-115407,65914,233242,40480
1008000,-115757,-106610,40726,319247,165954,-115353,225772,-120234,-115407,65867,233222,40491
1008001,-115740,-106593,40706,319324,166022,-115365,225756,-120225,-115416,65811,233184,40473
1008002,-115712,-106598,40710,319335,165982,-115369,225761,-120211,-115422,65830,233235,40475
1008003,-115675,-106576,40755,319291,165924,-115331,225769,-120168,-115383,65860,233272,40523
1008004,-115643,-106542,40794,319275,165848,-115314,225833,-120138,-115365,65919,233326,40559
1008005,-115630,-106531,40804,319278,165758,-115290,225963,-120132,-115345,66018,233269,40569
1008006,-115604,-106542,40766,319332,165834,-115255,226044,-120117,-115311,66090,233259,40530
1008007,-115575,-106523,40780,319312,166032,-115243,226067,-120107,-115298,66086,233299,40547
1008008,-115560,-106510,40825,319358,166221,-115299,226060,-120134,-115351,66082,233349,40591
1008009,-115563,-106508,40852,319415,166307,-115305,226076,-120151,-115360,66097,233380,40615
1008010,-115569,-106499,40857,319455,166257,-115320,226097,-120134,-115376,66058,233461,40621
1008011,-115576,-106504,40856,319454,166205,-115357,226095,-120161,-115408,66000,233528,40623
1008012,-115596,-106526,40845,319414,166152,-115433,226052,-120177,-115486,66004,233601,40608
1008013,-115626,-106544,40802,319390,166128,-115535,226022,-120188,-115588,65945,233592,40570
1008014,-115680,-106558,40773,319374,166080,-115556,226025,-120208,-115605,65913,233411,40539
1008015,-115724,-106558,40726,319322,166004,-115522,226025,-120213,-115575,65891,233324,40488
1008016,-115773,-106579,40664,319227,165863,-115489,225968,-120241,-115540,65872,233448,40430
1008017,-115773,-106591,40657,319157,165741,-115450,225941,-120271,-115507,65902,233426,40421
1008018,-115757,-106611,40674,319103,165704,-115439,225923,-120283,-115493,65910,233356,40442
1008019,-115757,-106638,40671,319117,165678,-115445,225911,-120295,-115499,65889,233279,40435
1008020,-115740,-106607,40710,319175,165627,-115449,225915,-120279,-115504,65911,233114,40473
1008021,-115723,-106590,40712,319238,165663,-115450,225942,-120222,-115507,65965,232875,40478
1008022,-115689,-106619,40637,319185,165857,-115481,225971,-120195,-115535,65940,232870,40401
1008023,-115637,-106596,40606,319260,165920,-115536,226016,-120158,-115590,65857,232949,40369
1008024,-115637,-106547,40624,319340,165864,-115571,226010,-120140,-115623,65864,233083,40389
1008025,-115640,-106555,40606,319297,165793,-115548,225994,-120162,-115598,65911,233404,40372
1008026,-115620,-106530,40627,319207,165902,-115495,226026,-120157,-115546,65945,233528,40394
1008027,-115636,-106524,40677,319193,165988,-115422,226041,-120154,-115475,65988,233601,40445
1008028,-115627,-106523,40730,319180,166048,-115386,226066,-120159,-115436,66007,233677,40495
1008029,-115584,-106520,40762,319221,166033,-115343,226054,-120145,-115395,66015,233677,40528
1008030,-115544,-106514,40735,319210,165923,-115293,226073,-120122,-115350,66084,233646,40499
1008031,-115573,-106517,40712,319229,165911,-115270,226057,-120129,-115321,66059,233593,40477
1008032,-115581,-106523,40686,319280,165920,-115306,226001,-120164,-115361,66001,233561,40454
1008033,-115606,-106530,40657,319250,165897,-115343,225979,-120202,-115395,65922,233469,40422
1008034,-115628,-106571,40686,319252,165749,-115364,225951,-120230,-115416,65822,233442,40451
1008035,-115658,-106585,40672,319212,165773,-115408,225874,-120239,-115461,65780,233435,40438
1008036,-115696,-106617,40647,319124,165859,-115431,225775,-120260,-115484,65746,233368,40412
1008037,-115726,-106633,40652,319025,165941,-115473,225705,-120272,-115526,65766,233332,40416
1008038,-115742,-106649,40646,318960,165992,-115482,225638,-120278,-115536,65781,233269,40413
1008039,-115762,-106645,40623,318991,165966,-115488,225659,-120275,-115541,65769,233185,40391
1008040,-115782,-106660,40633,319063,165972,-115469,225744,-120275,-115522,65723,233039,40397
1008041,-115777,-106652,40626,319123,165899,-115453,225805,-120250,-115506,65776,232971,40392
1008042,-115739,-106635,40614,319157,165882,-115443,225782,-120233,-115494,65746,233050,40380
1008043,-115715,-106620,40613,319194,165867,-115394,225743,-120195,-115447,65793,233101,40376
1008044,-115695,-106612,40612,319148,165814,-115383,225845,-120149,-115435,65861,233203,40376
1008045,-115701,-106604,40639,319149,165740,-115357,225935,-120134,-115407,65893,233302,40405
1008046,-115674,-106572,40652,319160,165656,-115315,225988,-120095,-115368,65975,233372,40417
1008047,-115632,-106565,40670,319212,165646,-115273,226022,-120059,-115327,66052,233349,40435
1008048,-115612,-106564,40699,319221,165672,-115243,226100,-120027,-115299,66093,233338,40466
1008049,-115605,-106572,40707,319205,165671,-115227,226174,-120018,-115278,66105,233389,40470
1008050,-115587,-106536,40715,319227,165547,-115193,226218,-119987,-115249,66121,233282,40479
1008051,-115603,-106537,40652,319246,165599,-115158,226196,-119977,-115212,66165,233115,40417
1008052,-115638,-106534,40605,319166,165725,-115184,226144,-119987,-115236,66093,233098,40367
1008053,-115662,-106551,40554,319117,165793,-115226,226036,-120013,-115280,65956,233109,40321
1008054,-115705,-106590,40534,319101,165907,-115278,225871,-120049,-115332,65844,233157,40298
1008055,-115783,-106644,40541,319057,165979,-115320,225738,-120074,-115371,65819,233266,40307
1008056,-115851,-106691,40546,319086,165921,-115344,225747,-120110,-115400,65829,233188,40310
1008057,-115890,-106721,40513,319097,165860,-115374,225736,-120130,-115427,65858,233134,40282
1008058,-115896,-106754,40450,319055,165796,-115323,225740,-120124,-115376,65926,233081,40215
1008059,-115922,-106789,40411,318970,165760,-115309,225788,-120116,-115364,65981,233020,40174
1008060,-115938,-106781,40386,318940,165781,-115295,225784,-120120,-115346,65983,233058,40150
1008061,-115930,-106766,40435,318936,165784,-115326,225813,-120086,-115379,66016,233044,40200
1008062,-115894,-106748,40425,318946,165822,-115332,225850,-120054,-115383,66066,233004,40190
1008063,-115903,-106734,40413,318979,165835,-115327,225873,-120034,-115378,66077,233076,40177
1008064,-115885,-106715,40465,319028,165822,-115314,225913,-120009,-115368,66035,233157,40231
1008065,-115857,-106703,40473,319075,165773,-115279,225964,-119999,-115332,66052,233185,40237
1008066,-115805,-106681,40524,319086,165745,-115200,226015,-119966,-115255,66090,233172,40288
1008067,-115739,-106648,40567,319084,165679,-115111,226054,-119956,-115160,66117,233232,40335
1008068,-115692,-106641,40596,319069,165593,-115053,226088,-119938,-115107,66123,233351,40360
1008069,-115691,-106660,40585,319077,165557,-115020,226111,-119937,-115073,66161,233572,40353
1008070,-115690,-106655,40565,319163,165483,-115029,226092,-119947,-115081,66188,233662,40329
1008071,-115739,-106700,40549,319135,165428,-115048,226036,-119964,-115102,66217,233827,40315
1008072,-115754,-106726,40504,319055,165497,-115069,226029,-119974,-115122,66114,233860,40268
1008073,-115825,-106757,40503,319026,165599,-115097,225985,-120006,-115149,66027,233716,40266
1008074,-115893,-106794,40488,318982,165565,-115103,225933,-120027,-115155,66001,233661,40254
1008075,-115938,-106795,40489,318975,165508,-115109,225893,-120045,-115160,65948,233624,40255
1008076,-115960,-106821,40444,318893,165540,-115171,225864,-120058,-115223,65910,233554,40208
1008077,-115976,-106849,40413,318765,165724,-115194,225839,-120081,-115246,65874,233460,40175
1008078,-115953,-106863,40417,318811,165820,-115284,225794,-120139,-115337,65855,233345,40181
1008079,-115934,-106844,40414,318818,165903,-115318,225754,-120158,-115368,65839,233250,40182
1008080,-115869,-106816,40407,318881,165992,-115301,225765,-120136,-115354,65834,232930,40176
1008081,-115827,-106782,40415,319002,165967,-115262,225815,-120078,-115315,65863,232598,40179
1008082,-115802,-106771,40410,319055,165900,-115207,225897,-120045,-115258,65866,232456,40175
1008083,-115777,-106752,40454,319086,165838,-115176,225853,-120021,-115230,65936,232514,40220
1008084,-115793,-106778,40515,319021,165859,-115166,225791,-120018,-115218,66047,232729,40279
1008085,-115828,-106800,40503,319007,165910,-115169,225791,-120038,-115224,66077,233021,40267
1008086,-115837,-106810,40484,319064,165920,-115211,225777,-120037,-115263,66100,233374,40251
1008087,-115817,-106808,40488,319100,165876,-115249,225863,-120013,-115302,66159,233539,40253
1008088,-115802,-106783,40473,319106,165875,-115249,226000,-120005,-115304,66207,233647,40242
1008089,-115771,-106794,40490,319079,165882,-115250,226041,-119991,-115302,66183,233761,40253
1008090,-115768,-106785,40475,319080,165908,-115261,226062,-119996,-115317,66115,233835,40240
1008091,-115778,-106824,40447,319086,165936,-115255,226048,-120017,-115308,66100,233798,40213
1008092,-115798,-106820,40444,319083,165869,-115237,226025,-120033,-115290,66100,233694,40209
1008093,-115833,-106830,40418,319022,165742,-115242,225986,-120072,-115294,66089,233656,40181
1008094,-115857,-106824,40420,319002,165627,-115262,225933,-120099,-115318,66041,233548,40188
1008095,-115868,-106828,40374,319005,165597,-115275,225906,-120109,-115326,65999,233427,40141
1008096,-115892,-106859,40300,318920,165566,-115278,225873,-120132,-115333,65971,233398,40067
1008097,-115901,-106865,40275,318833,165483,-115280,225902,-120139,-115335,65964,233414,40038
1008098,-115878,-106858,40292,318780,165389,-115286,225895,-120151,-115339,65911,233348,40057
1008099,-115874,-106853,40324,318810,165245,-115272,225859,-120146,-115324,65898,233280,40087
1008100,-115838,-106842,40333,318772,165056,-115252,225803,-120124,-115305,65964,233336,40100
1008101,-115808,-106836,40364,318617,164895,-115217,225785,-120092,-115270,66069,233417,40131
1008102,-115847,-106824,40386,318585,164963,-115196,225803,-120064,-115247,66071,233434,40154
1008103,-115899,-106810,40435,318683,165287,-115244,225815,-120083,-115296,65998,233372,40200
1008104,-115907,-106813,40454,318825,165596,-115322,225845,-120103,-115374,65980,233278,40217
1008105,-115855,-106810,40442,318985,165733,-115339,225859,-120102,-115394,65999,233116,40206
1008106,-115812,-106776,40460,319135,165931,-115376,225952,-120087,-115429,66018,232934,40225
1008107,-115743,-106760,40464,319183,166086,-115364,226039,-120087,-115416,65951,232911,40231
1008108,-115700,-106763,40472,319226,166228,-115335,226050,-120088,-115389,65861,232929,40237
1008109,-115661,-106729,40497,319241,166211,-115333,226131,-120054,-115384,65898,232837,40261
1008110,-115652,-106707,40543,319237,166115,-115360,226182,-120046,-115413,65912,232849,40310
1008111,-115646,-106723,40562,319219,166025,-115391,226176,-120083,-115444,65857,232958,40324
1008112,-115689,-106727,40546,319190,165914,-115417,226125,-120112,-115471,65812,233042,40311
1008113,-115754,-106760,40521,319098,165870,-115429,226034,-120159,-115481,65805,233129,40287
1008114,-115820,-106800,40444,319026,165817,-115405,225948,-120226,-115458,65806,233266,40208
1008115,-115828,-106794,40417,318967,165612,-115375,225921,-120274,-115426,65822,233327,40183
1008116,-115833,-106803,40391,318927,165395,-115392,225896,-120284,-115444,65824,233285,40155
1008117,-115861,-106821,40353,318872,165308,-115396,225880,-120292,-115450,65823,233312,40117
1008118,-115883,-106852,40290,318845,165362,-115432,225839,-120283,-115484,65832,233284,40054
1008119,-115894,-106865,40272,318827,165433,-115425,225811,-120282,-115479,65803,233207,40038
1008120,-115888,-106859,40300,318771,165503,-115420,225796,-120258,-115470,65749,233185,40063
1008121,-115903,-106856,40309,318768,165529,-115422,225781,-120254,-115476,65751,233254,40073
1008122,-115889,-106853,40314,318785,165583,-115444,225786,-120255,-115496,65758,233333,40079
1008123,-115880,-106848,40302,318872,165557,-115411,225833,-120239,-115463,65836,233312,40063
1008124,-115822,-106803,40326,318919,165579,-115382,225886,-120214,-115436,65860,233221,40090
1008125,-115814,-106802,40322,318992,165658,-115382,225895,-120219,-115433,65872,233238,40087
1008126,-115768,-106772,40361,319039,165702,-115374,225939,-120208,-115429,65911,233266,40126
1008127,-115768,-106763,40425,319027,165758,-115358,225957,-120189,-115408,65922,233358,40190
1008128,-115766,-106732,40515,319013,165863,-115340,226018,-120172,-115395,65920,233299,40277
1008129,-115761,-106736,40578,319067,165962,-115351,226047,-120177,-115404,65936,233296,40344
1008130,-115742,-106721,40615,319135,166040,-115364,226010,-120179,-115419,65866,233243,40379
1008131,-115700,-106734,40621,319179,166063,-115399,225988,-120203,-115452,65832,233177,40385
1008132,-115737,-106763,40600,319166,166053,-115427,225942,-120232,-115484,65825,233226,40367
1008133,-115762,-106796,40559,319092,166001,-115465,225876,-120265,-115519,65814,233258,40321
1008134,-115764,-106799,40559,319032,165934,-115488,225846,-120290,-115542,65793,233128,40321
1008135,-115796,-106810,40550,319020,165846,-115507,225830,-120308,-115559,65767,233073,40317
1008136,-115845,-106843,40485,319021,165787,-115523,225779,-120344,-115578,65773,233107,40249
1008137,-115917,-106851,40434,318995,165762,-115547,225726,-120345,-115598,65774,233173,40200
1008138,-115920,-106837,40428,319001,165669,-115547,225657,-120362,-115600,65779,233138,40195
1008139,-115923,-106831,40445,318989,165615,-115562,225623,-120359,-115614,65799,233059,40211
1008140,-115935,-106812,40452,319005,165525,-115529,225629,-120335,-115581,65817,233013,40217
1008141,-115889,-106785,40478,319020,165420,-115510,225707,-120297,-115562,65859,232948,40242
1008142,-115848,-106770,40475,318998,165445,-115497,225772,-120265,-115550,65870,232915,40237
1008143,-115826,-106759,40520,318962,165557,-115470,225808,-120248,-115525,65841,232920,40283
1008144,-115807,-106746,40550,319028,165565,-115461,225858,-120229,-115515,65826,232987,40315
1008145,-115802,-106729,40628,319044,165488,-115415,225892,-120202,-115467,65876,233005,40397
1008146,-115770,-106715,40707,318989,165520,-115354,225964,-120155,-115406,65945,232982,40472
1008147,-115765,-106716,40713,318960,165707,-115320,225938,-120139,-115376,65955,233046,40478
1008148,-115769,-106705,40733,319054,165840,-115318,225896,-120153,-115372,65935,233197,40497
1008149,-115792,-106697,40713,319129,165976,-115351,225914,-120182,-115402,65916,233342,40477
1008150,-115818,-106709,40695,319131,166062,-115360,225956,-120187,-115411,65934,233362,40462
1008151,-115822,-106698,40699,319148,166074,-115381,225923,-120198,-115435,65917,233391,40466
1008152,-115825,-106711,40665,319154,165995,-115367,225891,-120202,-115420,65863,233332,40429
1008153,-115869,-106731,40618,319232,165837,-115395,225840,-120216,-115448,65847,233299,40383
1008154,-115892,-106750,40591,319280,165711,-115440,225748,-120244,-115496,65853,233256,40355
1008155,-115914,-106797,40538,319185,165781,-115455,225642,-120267,-115509,65885,233322,40304
1008156,-115941,-106830,40500,319114,165846,-115466,225580,-120286,-115516,65833,233271,40267
1008157,-115957,-106814,40506,319125,165785,-115457,225583,-120275,-115510,65821,233069,40271
1008158,-115997,-106809,40478,319091,165584,-115419,225622,-120255,-115470,65828,233109,40243
1008159,-116000,-106784,40490,319087,165491,-115401,225651,-120244,-115457,65810,232965,40253
1008160,-116018,-106778,40533,319113,165542,-115464,225653,-120260,-115518,65801,232943,40299
1008161,-116022,-106771,40572,319120,165596,-115525,225686,-120292,-115578,65788,233049,40341
1008162,-115985,-106775,40591,319116,165697,-115518,225735,-120272,-115570,65840,233011,40356
1008163,-115976,-106775,40628,319082,165789,-115473,225738,-120257,-115527,65872,233099,40394
1008164,-115959,-106771,40656,319094,165865,-115444,225759,-120242,-115498,65857,233220,40425
1008165,-115954,-106751,40656,319120,165842,-115417,225750,-120244,-115472,65914,233294,40418
1008166,-115892,-106722,40620,319186,165888,-115362,225782,-120202,-115418,65957,233343,40384
1008167,-115839,-106696,40595,319220,165855,-115311,225859,-120145,-115365,66033,233328,40360
1008168,-115801,-106652,40631,319290,165741,-115286,225947,-120105,-115338,66033,233345,40395
1008169,-115782,-106644,40694,319317,165753,-115244,225974,-120086,-115297,66030,233319,40458
1008170,-115785,-106636,40729,319228,165705,-115224,225995,-120049,-115275,66080,233349,40497
1008171,-115798,-106650,40760,319110,165624,-115218,226015,-120052,-115270,66065,233448,40524
1008172,-115817,-106652,40767,319042,165448,-115251,226021,-120071,-115303,66007,233501,40534
1008173,-115827,-106661,40767,319005,165326,-115332,226007,-120069,-115386,65985,233477,40531
1008174,-115860,-106706,40701,318813,165457,-115383,225945,-120078,-115436,65935,233486,40464
1008175,-115869,-106712,40673,318710,165615,-115431,225914,-120076,-115485,65873,233358,40436
1008176,-115903,-106722,40640,318762,165703,-115439,225843,-120092,-115491,65773,233196,40405
1008177,-115916,-106724,40604,318875,165814,-115478,225794,-120148,-115530,65710,233008,40369
1008178,-115975,-106746,40580,318991,165846,-115490,225778,-120227,-115544,65703,232919,40346
1008179,-116028,-106747,40559,319069,165846,-115487,225766,-120271,-115540,65740,232785,40327
1008180,-116050,-106763,40581,319092,165817,-115470,225736,-120288,-115525,65810,232763,40344
1008181,-116024,-106769,40619,319093,165812,-115453,225729,-120286,-115508,65812,232860,40385
1008182,-115993,-106753,40677,319182,165841,-115436,225734,-120303,-115492,65754,232943,40443
1008183,-115968,-106748,40664,319252,165830,-115396,225755,-120281,-115449,65748,233007,40429
1008184,-115916,-106725,40658,319293,165792,-115350,225785,-120236,-115404,65787,233045,40427
1008185,-115873,-106711,40661,319303,165799,-115320,225842,-120202,-115376,65813,233041,40425
1008186,-115835,-106690,40700,319256,165821,-115272,225900,-120150,-115323,65890,233058,40466
1008187,-115762,-106654,40698,319221,165840,-115284,226010,-120121,-115332,65923,233109,40466
1008188,-115701,-106627,40712,319185,165776,-115258,226090,-120092,-115309,65939,233112,40478
1008189,-115648,-106608,40752,319179,165691,-115212,226156,-120041,-115264,65985,233084,40517
1008190,-115675,-106617,40760,319222,165592,-115200,226148,-120049,-115252,65950,233246,40525
1008191,-115707,-106647,40744,319269,165575,-115240,226106,-120093,-115291,65892,233423,40509
1008192,-115744,-106664,40712,319265,165593,-115253,226038,-120103,-115306,65910,233365,40476
1008193,-115833,-106704,40680,319218,165525,-115289,225995,-120117,-115343,65952,233348,40447
1008194,-115901,-106717,40636,319151,165513,-115396,225987,-120155,-115450,65985,233366,40403
1008195,-115918,-106742,40618,319080,165486,-115455,226001,-120152,-115513,65972,233308,40380
1008196,-115918,-106772,40557,318940,165520,-115461,225981,-120152,-115514,65985,233222,40320
1008197,-115936,-106803,40508,318803,165575,-115424,225932,-120160,-115474,65937,233219,40277
1008198,-115950,-106796,40472,318812,165558,-115402,225878,-120180,-115454,65874,233174,40237
1008199,-115945,-106815,40467,318881,165506,-115382,225801,-120216,-115432,65815,233222,40234
1008200,-115914,-106800,40462,318912,165492,-115361,225676,-120229,-115416,65815,233296,40228
1008201,-115869,-106794,40463,318982,165436,-115340,225643,-120174,-115391,65832,233259,40230
1008202,-115891,-106788,40448,318986,165500,-115315,225719,-120175,-115369,65870,233297,40217
1008203,-115923,-106794,40485,318950,165590,-115291,225786,-120156,-115341,65903,233370,40253
1008204,-115893,-106788,40481,318867,165763,-115283,225824,-120120,-115336,65953,233380,40245
1008205,-115848,-106772,40533,318864,165753,-115290,225880,-120130,-115344,65980,233382,40301
1008206,-115818,-106754,40541,318921,165831,-115263,225956,-120101,-115315,66011,233386,40307
1008207,-115780,-106760,40518,319039,165891,-115253,226051,-120101,-115306,66043,233367,40283
1008208,-115747,-106750,40574,319165,165911,-115269,226063,-120096,-115322,66068,233348,40340
1008209,-115720,-106729,40613,319221,165900,-115251,226096,-120098,-115306,66056,233333,40376
1008210,-115703,-106728,40631,319185,165861,-115242,226135,-120084,-115295,66040,233361,40398
1008211,-115706,-106735,40661,319200,165750,-115253,226151,-120106,-115309,65944,233444,40423
1008212,-115751,-106757,40647,319171,165786,-115268,226119,-120117,-115321,65915,233387,40411
1008213,-115777,-106772,40641,319084,165836,-115296,226075,-120124,-115345,65885,233197,40409
1008214,-115801,-106769,40680,319055,165850,-115350,226061,-120124,-115404,65870,232840,40448
1008215,-115845,-106750,40704,319082,165734,-115404,226030,-120133,-115457,65870,232720,40466
1008216,-115906,-106757,40715,319094,165615,-115445,225899,-120179,-115498,65844,232822,40476
1008217,-115957,-106779,40681,318970,165521,-115429,225855,-120179,-115481,65861,232914,40445
1008218,-115976,-106798,40653,318883,165390,-115385,225867,-120193,-115438,65851,232967,40417
1008219,-115958,-106827,40613,318909,165343,-115343,225859,-120198,-115395,65853,232884,40377
1008220,-115895,-106821,40547,318966,165409,-115327,225856,-120213,-115380,65832,232747,40310
1008221,-115894,-106831,40470,318913,165621,-115320,225858,-120224,-115373,65758,232888,40237
1008222,-115895,-106807,40448,318923,165752,-115323,225833,-120213,-115375,65703,232993,40212
1008223,-115938,-106806,40481,319020,165795,-115297,225819,-120202,-115352,65788,233025,40248
1008224,-115970,-106787,40555,319110,165798,-115373,225788,-120210,-115427,65863,233218,40318
1008225,-115947,-106797,40590,319141,165827,-115453,225842,-120216,-115508,65868,233370,40352
1008226,-115870,-106793,40618,319154,165888,-115455,225901,-120204,-115511,65810,233540,40384
1008227,-115801,-106791,40657,319177,165924,-115430,225937,-120183,-115486,65819,233549,40423
1008228,-115756,-106739,40683,319249,165890,-115401,225971,-120185,-115457,65835,233550,40447
1008229,-115722,-106735,40686,319330,165873,-115391,226013,-120198,-115442,65920,233545,40453
1008230,-115715,-106737,40644,319306,165901,-115362,226025,-120217,-115416,65978,233529,40410
1008231,-115728,-106751,40590,319241,165871,-115355,226013,-120207,-115407,66031,233509,40355
1008232,-115739,-106756,40569,319207,165848,-115369,225943,-120223,-115425,66021,233453,40335
1008233,-115764,-106746,40603,319188,165798,-115399,225876,-120243,-115451,65981,233349,40367
1008234,-115788,-106766,40605,319166,165761,-115407,225886,-120257,-115460,65957,233104,40369
1008235,-115817,-106786,40606,319111,165671,-115436,225896,-120302,-115491,65946,233083,40369
1008236,-115852,-106809,40611,319007,165703,-115492,225847,-120344,-115545,65839,233148,40376
1008237,-115891,-106824,40625,319000,165690,-115510,225800,-120372,-115562,65773,233147,40395
1008238,-115900,-106825,40616,318996,165674,-115493,225785,-120357,-115548,65793,232958,40382
1008239,-115932,-106809,40637,319004,165542,-115485,225788,-120357,-115538,65791,232858,40404
1008240,-115951,-106804,40636,319036,165591,-115503,225784,-120360,-115554,65751,232907,40398
1008241,-115965,-106807,40627,319045,165663,-115493,225785,-120357,-115546,65761,232903,40392
1008242,-115973,-106788,40631,319081,165696,-115506,225788,-120354,-115558,65771,232962,40394
1008243,-115945,-106768,40664,319054,165663,-115494,225798,-120335,-115547,65826,233091,40429
1008244,-115895,-106717,40733,319122,165590,-115476,225847,-120286,-115530,65887,232969,40499
1008245,-115839,-106697,40742,319165,165542,-115429,225890,-120248,-115481,65929,232812,40506
1008246,-115804,-106691,40749,319212,165560,-115411,225924,-120250,-115465,65897,233051,40515
1008247,-115787,-106690,40749,319170,165610,-115388,225940,-120229,-115439,65879,233303,40515
1008248,-115761,-106679,40771,319122,165682,-115352,225979,-120201,-115406,65940,233321,40536
1008249,-115764,-106669,40782,319113,165736,-115352,225984,-120204,-115405,65980,233399,40550
1008250,-115787,-106670,40801,319065,165830,-115356,225937,-120211,-115410,65942,233511,40565
1008251,-115801,-106681,40808,319081,165933,-115380,225906,-120222,-115434,65906,233387,40571
1008252,-115837,-106697,40810,319103,165905,-115433,225890,-120274,-115486,65858,233386,40573
1008253,-115861,-106697,40819,319137,165839,-115464,225831,-120322,-115521,65716,233375,40584
1008254,-115908,-106713,40799,319130,165818,-115494,225762,-120360,-115547,65631,233332,40564
1008255,-115917,-106710,40761,319170,165837,-115501,225698,-120371,-115552,65577,233215,40526
1008256,-115927,-106708,40714,319119,165835,-115528,225642,-120368,-115584,65580,233051,40481
1008257,-115933,-106729,40702,319045,165826,-115531,225634,-120362,-115584,65564,232910,40465
1008258,-115942,-106735,40707,319029,165820,-115566,225645,-120397,-115622,65546,232859,40471
1008259,-115970,-106757,40698,319008,165759,-115593,225639,-120432,-115647,65556,232869,40463
1008260,-115993,-106754,40721,318985,165694,-115614,225627,-120420,-115664,65599,232895,40485
1008261,-116001,-106752,40740,319008,165687,-115614,225597,-120428,-115665,65665,232985,40504
1008262,-116010,-106752,40754,319054,165679,-115621,225632,-120404,-115674,65722,233028,40519
1008263,-115977,-106717,40730,319119,165655,-115621,225691,-120377,-115676,65760,233032,40494
1008264,-115948,-106704,40708,319210,165665,-115603,225726,-120363,-115655,65811,233063,40470
1008265,-115930,-106694,40640,319300,165691,-115571,225744,-120345,-115625,65829,233113,40407
1008266,-115911,-106664,40627,319340,165758,-115560,225787,-120310,-115615,65851,233199,40391
1008267,-115909,-106654,40653,319329,165711,-115512,225863,-120281,-115566,65932,233255,40417
1008268,-115904,-106631,40756,319331,165632,-115449,225924,-120261,-115499,65987,233271,40522
1008269,-115877,-106616,40830,319321,165604,-115407,225954,-120256,-115457,66047,233238,40597
1008270,-115841,-106614,40861,319312,165638,-115378,225961,-120258,-115430,66020,233194,40627
1008271,-115812,-106644,40859,319265,165681,-115369,225957,-120273,-115423,65999,233116,40623
1008272,-115831,-106672,40838,319257,165699,-115396,225899,-120297,-115450,65925,233113,40606
1008273,-115854,-106696,40824,319222,165647,-115468,225845,-120318,-115523,65884,233168,40585
1008274,-115875,-106713,40786,319178,165576,-115517,225808,-120332,-115569,65837,233109,40553
1008275,-115901,-106726,40785,319188,165601,-115569,225764,-120369,-115622,65774,233064,40549
1008276,-115931,-106745,40767,319134,165733,-115576,225701,-120386,-115630,65695,232905,40533
1008277,-115962,-106771,40735,319080,165852,-115566,225617,-120391,-115619,65680,232793,40496
1008278,-115995,-106774,40726,319079,165885,-115577,225548,-120394,-115629,65655,232760,40493
1008279,-116047,-106775,40684,319097,165901,-115599,225495,-120428,-115653,65641,232870,40453
1008280,-116091,-106801,40653,319111,165878,-115644,225464,-120459,-115696,65678,233089,40417
1008281,-116076,-106771,40675,319074,165781,-115589,225489,-120433,-115645,65696,233175,40440
1008282,-116043,-106755,40675,319058,165639,-115518,225563,-120378,-115572,65730,233223,40439
1008283,-116070,-106738,40692,319058,165597,-115436,225670,-120328,-115490,65782,233224,40454
1008284,-116053,-106735,40705,319100,165647,-115425,225773,-120344,-115475,65810,233228,40473
1008285,-116015,-106724,40726,319091,165657,-115429,225830,-120350,-115481,65810,233302,40491
1008286,-115919,-106692,40788,319045,165655,-115380,225881,-120322,-115437,65871,233359,40551
1008287,-115868,-106657,40826,319058,165699,-115361,225965,-120289,-115417,65919,233297,40588
1008288,-115842,-106655,40836,319070,165817,-115356,225985,-120260,-115407,65935,233309,40602
1008289,-115827,-106640,40858,319117,165883,-115339,225943,-120260,-115394,65959,233368,40625
1008290,-115819,-106624,40852,319180,165836,-115330,225924,-120247,-115383,65971,233387,40616
1008291,-115803,-106620,40830,319204,165835,-115336,225873,-120260,-115392,65953,233404,40595
1008292,-115814,-106616,40812,319255,165926,-115382,225810,-120271,-115432,65867,233309,40580
1008293,-115842,-106654,40815,319168,165988,-115408,225753,-120280,-115463,65830,233150,40580
1008294,-115903,-106670,40791,319135,165870,-115450,225746,-120291,-115501,65826,233147,40557
1008295,-115945,-106680,40779,319113,165807,-115487,225749,-120311,-115540,65788,233174,40541
1008296,-115965,-106703,40753,319049,165767,-115512,225722,-120344,-115568,65748,233103,40516
1008297,-115972,-106718,40693,318952,165707,-115503,225734,-120320,-115556,65758,233101,40461
1008298,-115970,-106731,40617,318928,165661,-115528,225757,-120312,-115581,65782,233028,40383
1008299,-115997,-106747,40554,318928,165647,-115498,225704,-120314,-115550,65847,233023,40321
1008300,-115997,-106737,40563,318996,165580,-115476,225740,-120338,-115529,65831,233004,40330
1008301,-116023,-106745,40598,319006,165697,-115437,225757,-120338,-115489,65770,233083,40366
1008302,-115996,-106751,40642,318992,165869,-115414,225750,-120342,-115467,65754,233064,40408
1008303,-115942,-106739,40703,319083,165916,-115401,225765,-120356,-115453,65821,232990,40470
1008304,-115910,-106717,40714,319182,165947,-115394,225789,-120354,-115447,65858,233047,40479
1008305,-115891,-106720,40702,319300,165945,-115417,225781,-120352,-115469,65822,233223,40467
1008306,-115885,-106713,40693,319357,165926,-115388,225839,-120309,-115441,65873,233324,40458
1008307,-115857,-106672,40737,319337,165939,-115344,225903,-120248,-115399,65956,233272,40503
1008308,-115812,-106647,40808,319231,165977,-115311,225939,-120209,-115364,66036,233283,40574
1008309,-115773,-106621,40844,319234,165953,-115301,225972,-120201,-115354,66031,233333,40608
1008310,-115774,-106620,40866,319269,165956,-115282,225996,-120195,-115337,66068,233286,40629
1008311,-115784,-106620,40881,319220,165984,-115276,226017,-120214,-115331,66049,233194,40642
1008312,-115791,-106611,40891,319174,166009,-115293,226047,-120216,-115346,65923,233054,40652
1008313,-115852,-106636,40850,319190,166004,-115358,226007,-120275,-115411,65817,233095,40614
1008314,-115895,-106685,40776,319229,165945,-115396,225945,-120313,-115448,65773,233139,40543
1008315,-115894,-106713,40737,319302,165872,-115407,225898,-120332,-115459,65804,233063,40500
1008316,-115914,-106738,40675,319335,165795,-115453,225859,-120363,-115506,65776,233009,40441
1008317,-115926,-106757,40629,319253,165684,-115470,225851,-120369,-115524,65770,233106,40394
1008318,-115940,-106761,40580,319113,165620,-115466,225791,-120350,-115517,65807,233219,40343
1008319,-115955,-106793,40580,319006,165677,-115479,225688,-120356,-115530,65795,233289,40343
1008320,-115956,-106784,40597,318970,165639,-115529,225669,-120348,-115582,65819,233326,40363
1008321,-115956,-106757,40611,318921,165622,-115541,225737,-120338,-115593,65830,233396,40374
1008322,-115944,-106749,40641,318906,165694,-115568,225794,-120269,-115624,65813,233356,40400
1008323,-115888,-106719,40652,318923,165773,-115548,225871,-120241,-115603,65824,233193,40415
1008324,-115847,-106709,40650,318990,165851,-115546,225909,-120205,-115598,65814,233180,40416
1008325,-115830,-106717,40653,319127,165919,-115587,225917,-120245,-115639,65768,233297,40417
1008326,-115821,-106688,40667,319250,165865,-115531,225989,-120238,-115585,65808,233452,40433
1008327,-115786,-106663,40667,319290,165720,-115427,226076,-120202,-115480,65894,233404,40431
1008328,-115802,-106652,40655,319197,165748,-115352,226134,-120172,-115403,65972,233465,40422
1008329,-115806,-106651,40679,319178,165827,-115321,226142,-120156,-115373,66016,233497,40443
1008330,-115776,-106661,40701,319208,165979,-115327,226103,-120193,-115379,65982,233454,40466
1008331,-115758,-106665,40717,319234,166081,-115329,226009,-120204,-115379,65969,233324,40484
1008332,-115763,-106673,40705,319233,166122,-115340,225909,-120211,-115395,65951,233203,40470
1008333,-115751,-106685,40695,319188,166128,-115377,225855,-120260,-115428,65870,233104,40456
1008334,-115780,-106703,40698,319241,166080,-115437,225857,-120310,-115492,65810,232940,40462
1008335,-115782,-106686,40651,319260,166028,-115441,225859,-120304,-115495,65793,232737,40419
1008336,-115774,-106689,40618,319243,166009,-115469,225856,-120302,-115519,65732,232511,40384
1008337,-115786,-106705,40558,319169,165945,-115475,225865,-120309,-115528,65675,232523,40324
1008338,-115830,-106733,40494,319106,165942,-115536,225842,-120340,-115591,65596,232731,40259
1008339,-115878,-106766,40466,319059,165896,-115554,225806,-120359,-115607,65580,232895,40228
1008340,-115897,-106785,40497,319033,165765,-115533,225836,-120344,-115585,65651,232986,40263
1008341,-115891,-106790,40559,318983,165536,-115504,225842,-120345,-115559,65720,233213,40321
1008342,-115869,-106793,40603,318942,165387,-115482,225879,-120319,-115535,65761,233368,40367
1008343,-115841,-106795,40610,318914,165361,-115464,225924,-120294,-115516,65801,233486,40374
1008344,-115830,-106788,40628,318933,165523,-115457,225943,-120311,-115510,65870,233501,40394
1008345,-115796,-106769,40645,318936,165644,-115441,225888,-120310,-115492,65927,233468,40411
1008346,-115744,-106722,40681,319033,165647,-115437,225881,-120295,-115488,65951,233513,40447
1008347,-115784,-106704,40666,319014,165653,-115391,225975,-120256,-115445,66009,233603,40431
1008348,-115835,-106685,40642,319029,165668,-115346,226018,-120219,-115401,66059,233661,40404
1008349,-115804,-106654,40645,319127,165702,-115336,226054,-120195,-115393,66059,233566,40410
1008350,-115777,-106634,40650,319238,165802,-115336,226063,-120212,-115391,66025,233404,40414
1008351,-115755,-106613,40680,319314,165845,-115362,226053,-120224,-115415,65964,233142,40442
1008352,-115700,-106598,40722,319349,165807,-115394,226049,-120236,-115443,65844,232965,40488
1008353,-115736,-106632,40709,319273,165808,-115450,225979,-120288,-115505,65757,233039,40475
1008354,-115811,-106697,40695,319134,165818,-115503,225933,-120322,-115555,65723,233137,40462
1008355,-115842,-106711,40713,319081,165770,-115512,225900,-120335,-115564,65724,233032,40479
1008356,-115868,-106727,40680,319036,165815,-115529,225895,-120343,-115580,65732,232786,40446
1008357,-115891,-106737,40660,318971,165933,-115589,225844,-120388,-115640,65672,232766,40427
1008358,-115886,-106744,40653,318996,165910,-115658,225765,-120418,-115711,65605,232853,40419
1008359,-115886,-106747,40650,318954,165780,-115669,225770,-120406,-115720,65653,232780,40417
1008360,-115880,-106762,40640,318945,165860,-115709,225780,-120409,-115763,65695,232715,40403
1008361,-115889,-106753,40667,319030,166010,-115717,225703,-120432,-115768,65621,232818,40433
1008362,-115883,-106746,40677,319112,166053,-115748,225674,-120424,-115799,65601,232927,40442
1008363,-115873,-106735,40672,319142,165970,-115713,225762,-120430,-115766,65651,233021,40439
1008364,-115859,-106710,40695,319164,165862,-115700,225859,-120407,-115751,65708,233046,40460
1008365,-115814,-106690,40750,319147,165815,-115645,225917,-120396,-115699,65797,232989,40516
1008366,-115768,-106666,40785,319144,165741,-115572,225985,-120377,-115626,65853,233041,40549
1008367,-115747,-106640,40780,319165,165756,-115529,225989,-120378,-115582,65795,233271,40542
1008368,-115719,-106623,40756,319228,165703,-115488,225980,-120381,-115542,65756,233499,40519
1008369,-115700,-106599,40709,319234,165630,-115402,225939,-120361,-115457,65870,233539,40476
1008370,-115702,-106611,40678,319258,165690,-115416,225935,-120376,-115468,65894,233556,40445
1008371,-115725,-106632,40662,319244,165728,-115429,225926,-120403,-115481,65902,233582,40429
1008372,-115786,-106641,40648,319209,165782,-115451,225863,-120407,-115504,65873,233538,40414
1008373,-115856,-106648,40640,319179,165812,-115479,225796,-120438,-115534,65828,233351,40405
1008374,-115882,-106655,40627,319159,165746,-115507,225765,-120468,-115561,65818,233237,40391
1008375,-115867,-106672,40642,319187,165815,-115596,225735,-120525,-115648,65756,233154,40408
1008376,-115898,-106706,40645,319164,165923,-115662,225693,-120579,-115716,65689,233053,40410
1008377,-115908,-106723,40656,319151,165953,-115699,225681,-120601,-115749,65650,232939,40422
1008378,-115919,-106742,40647,319117,165954,-115717,225670,-120619,-115770,65626,232875,40413
1008379,-115930,-106742,40658,319132,165921,-115698,225651,-120624,-115750,65600,232832,40422
1008380,-115926,-106713,40705,319173,165888,-115674,225655,-120612,-115730,65564,232698,40470
1008381,-115919,-106703,40729,319213,165917,-115642,225679,-120598,-115696,65513,232694,40496
1008382,-115901,-106695,40706,319219,165925,-115649,225681,-120620,-115702,65516,232868,40470
1008383,-115877,-106683,40752,319259,165942,-115655,225722,-120603,-115705,65559,232888,40519
1008384,-115855,-106655,40792,319314,165966,-115644,225746,-120577,-115699,65609,232880,40557
1008385,-115841,-106644,40815,319319,165997,-115628,225791,-120559,-115684,65681,232809,40580
1008386,-115810,-106604,40875,319337,166030,-115576,225853,-120499,-115629,65729,232771,40637
1008387,-115777,-106593,40893,319361,165978,-115546,225895,-120461,-115595,65733,232942,40661
1008388,-115774,-106575,40903,319353,165954,-115525,225923,-120443,-115576,65740,233168,40670
1008389,-115730,-106534,40939,319379,165922,-115495,225924,-120416,-115547,65729,233221,40704
1008390,-115741,-106526,40943,319446,165793,-115477,225912,-120408,-115530,65782,233229,40708
1008391,-115745,-106533,40956,319458,165659,-115507,225898,-120417,-115563,65836,233280,40720
1008392,-115785,-106556,40948,319356,165547,-115532,225894,-120415,-115585,65889,233343,40712
1008393,-115864,-106589,40872,319241,165591,-115548,225873,-120445,-115600,65920,233349,40636
1008394,-115951,-106621,40829,319185,165654,-115572,225796,-120468,-115623,65884,233364,40594
1008395,-115965,-106652,40783,319038,165839,-115592,225755,-120499,-115647,65858,233386,40548
1008396,-115990,-106642,40779,318978,165852,-115588,225693,-120495,-115641,65816,233272,40546
1008397,-116022,-106654,40780,318990,165810,-115596,225635,-120523,-115651,65818,233240,40544
1008398,-116062,-106676,40776,319038,165749,-115614,225577,-120535,-115665,65824,233243,40540
1008399,-116093,-106695,40759,319058,165774,-115624,225576,-120540,-115678,65823,233229,40524
1008400,-116097,-106703,40759,319114,165766,-115607,225538,-120533,-115658,65840,233203,40525
1008401,-116068,-106699,40771,319126,165864,-115624,225539,-120522,-115678,65826,233209,40534
1008402,-116008,-106683,40784,319137,165976,-115610,225567,-120510,-115661,65747,233222,40551
1008403,-115946,-106661,40829,319175,166038,-115581,225645,-120503,-115634,65690,233176,40597
1008404,-115901,-106646,40839,319244,166052,-115580,225728,-120470,-115630,65744,233109,40605
1008405,-115909,-106654,40841,319288,166022,-115560,225779,-120441,-115613,65786,233214,40607
1008406,-115884,-106635,40855,319384,166053,-115512,225826,-120419,-115564,65799,233284,40619
1008407,-115876,-106615,40889,319438,166080,-115425,225885,-120351,-115479,65788,233209,40656
1008408,-115842,-106588,40905,319479,166147,-115429,225892,-120343,-115483,65876,233176,40671
1008409,-115801,-106567,40915,319511,166202,-115423,225867,-120306,-115474,65948,233111,40678
1008410,-115773,-106540,40932,319564,166254,-115418,225819,-120298,-115472,65987,232976,40698
1008411,-115727,-106523,40928,319542,166147,-115433,225793,-120307,-115486,65952,232999,40695
1008412,-115733,-106547,40915,319502,165942,-115463,225829,-120313,-115515,65879,233154,40681
1008413,-115753,-106577,40906,319408,165886,-115484,225849,-120334,-115534,65773,233094,40673
1008414,-115790,-106597,40871,319291,165887,-115468,225890,-120319,-115518,65816,232867,40637
1008415,-115847,-106610,40816,319225,165820,-115477,225877,-120342,-115530,65808,232915,40580
1008416,-115877,-106613,40751,319206,165585,-115515,225868,-120380,-115569,65771,233057,40517
1008417,-115907,-106642,40712,319216,165461,-115501,225821,-120391,-115556,65822,233048,40476
1008418,-115916,-106672,40692,319173,165250,-115451,225802,-120379,-115504,65914,233098,40457
1008419,-115964,-106721,40638,319002,165277,-115455,225745,-120374,-115508,65955,233331,40403
1008420,-115991,-106741,40649,318930,165378,-115469,225709,-120391,-115524,65928,233497,40412
1008421,-115994,-106767,40629,318790,165557,-115500,225796,-120390,-115553,65917,233567,40395
1008422,-115990,-106750,40603,318860,165756,-115513,225788,-120385,-115566,65951,233477,40370
1008423,-115965,-106741,40621,319022,165933,-115512,225753,-120381,-115566,65934,233383,40389
1008424,-115921,-106707,40682,319176,166035,-115544,225763,-120374,-115596,65895,233346,40448
1008425,-115883,-106679,40704,319210,166029,-115548,225825,-120361,-115602,65881,233315,40467
1008426,-115831,-106656,40743,319264,166038,-115536,225930,-120350,-115587,65898,233327,40509
1008427,-115807,-106635,40781,319303,166061,-115482,226009,-120329,-115536,65912,233300,40547
1008428,-115775,-106619,40804,319342,166069,-115433,226051,-120327,-115490,65931,233340,40566
1008429,-115752,-106623,40810,319400,166099,-115391,226052,-120309,-115444,65984,233313,40572
1008430,-115749,-106629,40817,319394,166148,-115389,226035,-120298,-115442,66020,233283,40584
1008431,-115740,-106605,40867,319414,166165,-115439,225940,-120286,-115491,66038,233207,40630
1008432,-115755,-106609,40861,319380,166105,-115475,225856,-120281,-115528,66004,233219,40629
1008433,-115821,-106632,40799,319299,166032,-115479,225861,-120290,-115534,65993,233235,40563
1008434,-115837,-106660,40711,319236,165986,-115484,225819,-120294,-115535,65975,233181,40474
1008435,-115855,-106673,40703,319220,165975,-115489,225817,-120319,-115544,65925,233039,40469
1008436,-115858,-106678,40703,319260,165959,-115527,225813,-120355,-115578,65836,232873,40469
1008437,-115877,-106706,40700,319240,165897,-115616,225840,-120370,-115669,65771,232902,40466
1008438,-115904,-106726,40689,319201,165827,-115607,225856,-120372,-115658,65698,233025,40455
1008439,-115914,-106731,40661,319187,165722,-115606,225873,-120372,-115658,65644,233060,40428
1008440,-115939,-106741,40652,319182,165624,-115545,225896,-120363,-115600,65723,233113,40415
1008441,-115969,-106726,40647,319197,165603,-115529,225901,-120373,-115582,65820,233166,40416
1008442,-115932,-106706,40684,319241,165656,-115472,225906,-120384,-115528,65890,232997,40448
1008443,-115901,-106695,40709,319178,165745,-115445,225909,-120394,-115498,65941,233042,40476
1008444,-115904,-106689,40713,319079,165852,-115441,225888,-120404,-115494,65938,233355,40481
1008445,-115904,-106691,40707,319058,165892,-115397,225885,-120399,-115449,66031,233467,40475
1008446,-115868,-106690,40692,319123,165905,-115357,225919,-120375,-115411,66122,233541,40457
1008447,-115838,-106703,40652,319200,165935,-115320,225954,-120332,-115375,66170,233601,40418
1008448,-115796,-106666,40655,319257,165997,-115317,225996,-120315,-115367,66126,233621,40421
1008449,-115768,-106647,40650,319293,166032,-115306,226023,-120301,-115360,66096,233678,40417
1008450,-115738,-106630,40684,319264,165964,-115302,226075,-120289,-115357,66092,233636,40447
1008451,-115735,-106599,40771,319233,165869,-115324,226107,-120293,-115376,66092,233500,40536
1008452,-115783,-106611,40804,319222,165865,-115343,226042,-120308,-115396,66055,233426,40567
1008453,-115816,-106611,40831,319232,165919,-115370,225969,-120323,-115422,66009,233180,40596
1008454,-115857,-106627,40789,319232,165947,-115394,225940,-120343,-115447,65957,232996,40554
1008455,-115865,-106644,40719,319197,165912,-115395,225909,-120332,-115447,65911,232980,40484
1008456,-115885,-106681,40637,319194,165846,-115411,225868,-120360,-115464,65880,232980,40400
1008457,-115916,-106708,40575,319088,165831,-115404,225864,-120370,-115458,65857,233017,40341
1008458,-115907,-106690,40575,319055,165832,-115433,225861,-120394,-115484,65792,233036,40340
1008459,-115929,-106709,40603,319092,165794,-115447,225824,-120408,-115500,65790,233004,40368
1008460,-115965,-106707,40637,319097,165737,-115446,225784,-120407,-115499,65862,233033,40404
1008461,-115963,-106694,40655,319125,165725,-115446,225780,-120384,-115498,65873,232997,40421
1008462,-115950,-106676,40696,319156,165725,-115408,225770,-120371,-115463,65888,233008,40462
1008463,-115904,-106660,40737,319185,165826,-115434,225781,-120364,-115487,65872,233049,40502
1008464,-115873,-106657,40754,319199,165826,-115429,225814,-120344,-115485,65888,233122,40516
1008465,-115841,-106651,40758,319185,165787,-115414,225850,-120322,-115469,65897,233238,40522
1008466,-115817,-106626,40784,319256,165749,-115410,225911,-120303,-115464,65950,233357,40547
1008467,-115810,-106606,40774,319294,165765,-115364,225926,-120278,-115416,66006,233498,40537
1008468,-115775,-106594,40772,319294,165818,-115352,225979,-120260,-115405,66043,233483,40537
1008469,-115733,-106577,40802,319320,165907,-115342,226034,-120230,-115393,66063,233327,40566
1008470,-115726,-106569,40816,319295,165899,-115333,226043,-120224,-115387,66106,233299,40583
1008471,-115734,-106567,40803,319302,165848,-115353,225973,-120245,-115405,66076,233401,40568
1008472,-115765,-106578,40773,319265,165810,-115382,225915,-120270,-115438,66027,233439,40540
1008473,-115819,-106584,40758,319181,165821,-115417,225899,-120257,-115471,65980,233318,40524
1008474,-115814,-106595,40749,319136,165744,-115446,225843,-120257,-115497,65940,233128,40515
1008475,-115802,-106576,40758,319136,165624,-115464,225801,-120255,-115517,65904,233052,40523
1008476,-115832,-106590,40746,319054,165578,-115503,225813,-120287,-115554,65783,233064,40512
1008477,-115861,-106627,40658,318983,165652,-115507,225829,-120320,-115555,65779,233008,40422
1008478,-115895,-106651,40600,318966,165662,-115492,225787,-120354,-115543,65819,233023,40366
1008479,-115926,-106656,40576,318976,165689,-115494,225744,-120396,-115549,65802,233012,40342
1008480,-115931,-106650,40564,318995,165756,-115492,225753,-120403,-115543,65821,232976,40327
1008481,-115913,-106626,40603,319004,165673,-115476,225790,-120365,-115528,65807,232954,40367
1008482,-115888,-106620,40659,319072,165600,-115474,225788,-120361,-115530,65825,232979,40425
1008483,-115866,-106604,40656,319141,165650,-115466,225796,-120368,-115517,65791,233072,40419
1008484,-115837,-106582,40686,319162,165662,-115445,225847,-120336,-115497,65810,233109,40452
1008485,-115798,-106554,40724,319202,165665,-115438,225875,-120321,-115490,65795,233111,40490
1008486,-115790,-106529,40774,319219,165830,-115424,225906,-120295,-115479,65792,233078,40539
1008487,-115790,-106526,40795,319208,165992,-115470,225918,-120297,-115525,65822,233231,40560
1008488,-115777,-106531,40797,319246,166127,-115494,225890,-120291,-115547,65853,233330,40563
1008489,-115782,-106524,40788,319293,166121,-115464,225912,-120269,-115519,65959,233352,40555
1008490,-115783,-106500,40801,319333,166039,-115455,225980,-120288,-115504,65979,233334,40566
1008491,-115792,-106502,40779,319375,165980,-115438,225958,-120334,-115491,65966,233327,40544
1008492,-115801,-106534,40721,319350,165951,-115459,225926,-120341,-115511,65919,233354,40487
1008493,-115804,-106548,40713,319306,165947,-115467,225865,-120374,-115518,65826,233268,40476
1008494,-115852,-106576,40676,319263,166006,-115455,225807,-120393,-115510,65715,233173,40442
1008495,-115855,-106576,40670,319194,165989,-115466,225808,-120398,-115521,65649,233106,40435
1008496,-115869,-106589,40661,319098,165845,-115479,225831,-120405,-115532,65569,233069,40425
1008497,-115902,-106600,40628,319015,165743,-115505,225809,-120382,-115562,65599,233061,40394
1008498,-115913,-106596,40588,318968,165705,-115569,225815,-120370,-115624,65684,233010,40351
1008499,-115910,-106626,40510,318946,165665,-115578,225816,-120366,-115631,65795,232899,40274
1008500,-115907,-106634,40499,319005,165570,-115588,225843,-120348,-115641,65824,232851,40264
1008501,-115897,-106619,40566,319100,165542,-115560,225820,-120368,-115616,65788,232884,40330
1008502,-115897,-106619,40624,319134,165584,-115541,225788,-120379,-115593,65799,232963,40389
1008503,-115923,-106641,40714,319073,165582,-115471,225809,-120352,-115524,65926,232993,40476
1008504,-115938,-106649,40691,318993,165668,-115414,225884,-120323,-115464,65998,233022,40457
1008505,-115919,-106644,40686,318980,165786,-115405,225897,-120311,-115461,65981,233067,40451
1008506,-115863,-106644,40695,319042,165908,-115407,225918,-120287,-115459,65967,233153,40457
1008507,-115829,-106637,40687,319105,165960,-115368,225964,-120257,-115422,65930,233219,40455
1008508,-115784,-106605,40719,319185,165950,-115386,225989,-120242,-115434,65963,233194,40481
1008509,-115777,-106596,40727,319291,165898,-115347,226008,-120220,-115399,66024,233191,40494
1008510,-115798,-106584,40756,319377,165847,-115379,226051,-120225,-115429,66000,233183,40521
1008511,-115805,-106597,40724,319346,165848,-115401,226093,-120224,-115454,66016,233112,40487
1008512,-115805,-106629,40685,319284,165876,-115419,226071,-120226,-115471,65964,233039,40450
1008513,-115828,-106657,40611,319287,165814,-115438,225999,-120269,-115491,65885,233088,40372
1008514,-115830,-106704,40543,319187,165733,-115438,225964,-120269,-115493,65872,233009,40308
1008515,-115809,-106708,40573,319187,165728,-115448,225905,-120290,-115501,65884,232790,40337
1008516,-115873,-106738,40540,319102,165764,-115454,225793,-120318,-115507,65845,232862,40304
1008517,-115912,-106753,40533,319083,165709,-115461,225738,-120345,-115515,65758,232992,40296
1008518,-115940,-106770,40486,319088,165717,-115503,225721,-120365,-115554,65698,233028,40251
1008519,-115978,-106804,40473,319027,165799,-115515,225707,-120391,-115569,65689,233082,40238
1008520,-115976,-106813,40498,319026,165885,-115548,225749,-120401,-115602,65668,233096,40262
1008521,-115970,-106818,40505,318993,165822,-115551,225806,-120384,-115605,65709,233181,40270
1008522,-115960,-106814,40533,318996,165694,-115534,225846,-120335,-115584,65763,233249,40298
1008523,-115919,-106803,40539,318990,165630,-115513,225875,-120296,-115568,65820,233296,40305
1008524,-115891,-106778,40572,319007,165610,-115461,225867,-120272,-115515,65860,233331,40331
1008525,-115862,-106753,40590,319014,165591,-115398,225868,-120242,-115450,65931,233293,40355
1008526,-115842,-106723,40585,319056,165655,-115365,225908,-120233,-115417,65998,233341,40352
1008527,-115789,-106706,40593,319109,165771,-115363,225958,-120224,-115417,65978,233364,40354
1008528,-115739,-106700,40608,319162,165874,-115335,226059,-120200,-115386,65990,233215,40374
1008529,-115720,-106678,40606,319231,165942,-115321,226135,-120182,-115371,65948,233147,40372
1008530,-115742,-106663,40622,319335,165960,-115343,226072,-120194,-115398,65910,233169,40387
1008531,-115765,-106646,40653,319384,165951,-115361,226013,-120173,-115413,65872,233076,40417
1008532,-115768,-106679,40634,319301,165902,-115448,226060,-120153,-115503,65878,232983,40397
1008533,-115798,-106713,40577,319238,165906,-115542,226027,-120206,-115597,65861,233058,40341
1008534,-115854,-106746,40531,319201,165877,-115579,225912,-120246,-115631,65826,233161,40297
1008535,-115887,-106768,40514,319111,165832,-115533,225825,-120278,-115584,65855,233160,40279
1008536,-115934,-106804,40451,319024,165778,-115481,225791,-120309,-115535,65846,233150,40215
1008537,-115984,-106816,40413,318920,165665,-115460,225832,-120321,-115515,65848,233256,40175
1008538,-115987,-106844,40363,318841,165653,-115481,225844,-120331,-115537,65832,233294,40127
1008539,-115979,-106861,40365,318839,165681,-115497,225837,-120358,-115551,65832,233212,40128
1008540,-115988,-106862,40358,318851,165652,-115492,225864,-120357,-115544,65838,233179,40122
1008541,-115965,-106858,40374,318855,165637,-115481,225908,-120350,-115532,65849,233168,40138
1008542,-115964,-106853,40415,318843,165614,-115404,225924,-120309,-115458,65908,233181,40180
1008543,-115922,-106819,40450,318856,165563,-115372,225935,-120285,-115426,65916,233204,40214
1008544,-115863,-106804,40468,318900,165659,-115379,225948,-120280,-115432,65929,233231,40234
1008545,-115828,-106793,40476,318945,165669,-115363,225960,-120264,-115414,65922,233251,40242
1008546,-115779,-106749,40518,319042,165705,-115324,226012,-120241,-115380,65955,233218,40282
1008547,-115761,-106738,40562,319035,165818,-115317,226113,-120202,-115370,66016,233105,40326
1008548,-115716,-106701,40603,319080,165855,-115293,226179,-120188,-115347,66021,233015,40366
1008549,-115686,-106681,40639,319225,165875,-115341,226171,-120192,-115394,65972,233063,40403
1008550,-115697,-106697,40615,319259,165932,-115363,226110,-120208,-115419,65935,233232,40378
1008551,-115736,-106720,40569,319222,165948,-115374,226088,-120222,-115427,65946,233342,40333
1008552,-115739,-106702,40518,319168,165825,-115386,226079,-120221,-115438,65931,233337,40280
1008553,-115757,-106700,40423,319097,165695,-115379,226059,-120195,-115431,65972,233162,40190
1008554,-115771,-106725,40364,319025,165545,-115327,226019,-120189,-115383,66040,233049,40130
1008555,-115845,-106745,40365,318934,165494,-115330,225995,-120179,-115385,66037,233082,40128
1008556,-115920,-106797,40404,318872,165612,-115399,225996,-120230,-115448,65937,233022,40169
1008557,-115978,-106847,40469,318837,165725,-115447,225955,-120286,-115501,65895,233047,40233
1008558,-115990,-106860,40463,318858,165734,-115460,225874,-120308,-115515,65841,233045,40228
1008559,-115980,-106878,40431,318956,165747,-115489,225819,-120348,-115541,65807,233047,40193
1008560,-115972,-106881,40394,319012,165740,-115507,225791,-120351,-115558,65870,233054,40159
1008561,-115919,-106877,40397,319083,165780,-115517,225817,-120328,-115568,65819,233051,40159
1008562,-115892,-106835,40434,319137,165826,-115551,225867,-120272,-115602,65737,233007,40201
1008563,-115879,-106812,40479,319163,165858,-115543,225934,-120220,-115594,65765,233004,40243
1008564,-115858,-106775,40523,319225,165731,-115503,226005,-120193,-115557,65809,233135,40290
1008565,-115847,-106757,40572,319269,165653,-115499,225991,-120235,-115555,65818,233338,40336
1008566,-115827,-106762,40574,319224,165816,-115443,226002,-120244,-115494,65861,233564,40340
1008567,-115831,-106747,40575,319179,165895,-115320,226066,-120227,-115374,65956,233483,40342
1008568,-115828,-106717,40603,319176,165949,-115244,226076,-120207,-115297,65969,233560,40366
1008569,-115827,-106702,40602,319248,166060,-115224,226072,-120186,-115277,65888,233630,40366
1008570,-115805,-106682,40599,319307,166144,-115248,226068,-120180,-115302,65944,233525,40365
1008571,-115826,-106702,40568,319257,166165,-115240,226043,-120161,-115292,65993,233480,40331
1008572,-115842,-106719,40580,319256,166097,-115302,226016,-120189,-115356,66032,233462,40344
1008573,-115866,-106738,40566,319246,165997,-115332,225985,-120232,-115386,66044,233410,40329
1008574,-115892,-106750,40556,319201,165927,-115351,225943,-120250,-115405,66027,233317,40319
1008575,-115888,-106757,40533,319179,165871,-115365,225933,-120263,-115423,66050,233234,40299
1008576,-115915,-106769,40543,319090,165863,-115403,225885,-120286,-115458,66012,233172,40305
1008577,-115911,-106765,40568,319085,165849,-115438,225861,-120304,-115491,65892,233169,40331
1008578,-115917,-106769,40590,319095,165828,-115444,225859,-120317,-115497,65791,233116,40351
1008579,-115900,-106765,40587,319091,165795,-115457,225901,-120323,-115508,65807,232958,40351
1008580,-115905,-106768,40569,319061,165802,-115432,225912,-120287,-115488,65851,232924,40333
1008581,-115905,-106760,40574,319060,165880,-115453,225876,-120279,-115507,65876,233064,40338
1008582,-115883,-106751,40576,319128,165939,-115467,225895,-120250,-115522,65855,233067,40338
1008583,-115835,-106718,40605,319202,165911,-115442,225913,-120214,-115495,65889,233012,40373
1008584,-115805,-106697,40655,319240,165904,-115454,225968,-120203,-115507,65887,233109,40420
1008585,-115790,-106688,40672,319258,165961,-115435,225974,-120195,-115489,65879,233129,40438
1008586,-115765,-106644,40717,319292,166050,-115395,225986,-120167,-115450,65965,233113,40481
1008587,-115733,-106624,40754,319321,166062,-115330,226010,-120140,-115382,66050,233088,40519
1008588,-115702,-106585,40791,319392,165941,-115261,226054,-120095,-115311,66086,233104,40555
1008589,-115684,-106571,40827,319389,165813,-115229,226098,-120074,-115286,66114,233221,40591
1008590,-115688,-106565,40834,319289,165760,-115201,226104,-120083,-115254,66112,233436,40598
1008591,-115699,-106580,40774,319203,165763,-115211,226115,-120114,-115265,66115,233600,40540
1008592,-115717,-106597,40736,319206,165753,-115211,226041,-120149,-115259,66126,233533,40501
1008593,-115740,-106617,40689,319145,165735,-115228,225991,-120165,-115282,66102,233427,40450
1008594,-115779,-106651,40652,319044,165726,-115231,225988,-120190,-115284,66031,233411,40419
1008595,-115835,-106655,40634,319047,165692,-115236,225996,-120179,-115290,65984,233284,40397
1008596,-115912,-106675,40659,319030,165770,-115262,225984,-120199,-115317,65970,233054,40424
1008597,-115976,-106688,40657,319067,165756,-115287,225933,-120233,-115340,65947,233022,40422
1008598,-116007,-106709,40670,319086,165746,-115335,225877,-120263,-115391,65916,233126,40433
1008599,-115996,-106723,40637,319088,165739,-115364,225840,-120281,-115420,65932,233138,40401
1008600,-115993,-106742,40655,319160,165717,-115372,225837,-120285,-115425,65969,233094,40422
1008601,-115976,-106735,40654,319170,165773,-115385,225828,-120291,-115435,65925,233271,40418
1008602,-115956,-106728,40662,319066,165857,-115363,225811,-120282,-115417,65912,233407,40428
1008603,-115916,-106718,40666,319088,165830,-115339,225867,-120243,-115391,65968,233421,40432
1008604,-115868,-106697,40667,319121,165720,-115277,225928,-120197,-115329,66040,233389,40432
1008605,-115845,-106676,40649,319162,165756,-115252,225975,-120170,-115308,66058,233351,40414
1008606,-115835,-106687,40633,319156,165888,-115264,226023,-120162,-115314,66107,233517,40397
1008607,-115821,-106673,40705,319189,166032,-115284,226029,-120134,-115333,66072,233604,40467
1008608,-115795,-106625,40754,319286,166134,-115275,226008,-120099,-115327,66046,233583,40522
1008609,-115801,-106604,40752,319359,166208,-115246,226004,-120099,-115298,66080,233560,40516
1008610,-115779,-106596,40746,319427,166171,-115233,226029,-120106,-115287,66071,233552,40510
1008611,-115768,-106599,40743,319368,166112,-115214,226009,-120117,-115264,66081,233522,40507
1008612,-115776,-106630,40689,319294,166112,-115207,225942,-120135,-115258,66103,233484,40453
1008613,-115796,-106636,40595,319283,166159,-115239,225865,-120158,-115293,66089,233390,40359
1008614,-115829,-106695,40529,319225,166123,-115264,225829,-120162,-115315,66079,233334,40293
1008615,-115817,-106697,40550,319172,166074,-115302,225843,-120139,-115354,66056,233182,40315
1008616,-115814,-106700,40622,319170,165841,-115319,225831,-120135,-115373,66043,233028,40389
1008617,-115859,-106705,40705,319182,165596,-115315,225859,-120156,-115370,66038,233030,40470
1008618,-115904,-106750,40703,319179,165435,-115288,225874,-120166,-115341,66027,233165,40467
1008619,-115946,-106778,40681,319145,165518,-115308,225863,-120174,-115361,65972,233197,40449
1008620,-115954,-106797,40673,319097,165601,-115280,225881,-120180,-115332,65991,233163,40440
1008621,-115920,-106791,40668,319125,165715,-115281,225896,-120192,-115339,65991,233201,40434
1008622,-115904,-106771,40686,319188,165804,-115342,225935,-120189,-115394,65941,233256,40451
1008623,-115893,-106773,40625,319182,166000,-115397,225929,-120162,-115452,65917,233417,40390
1008624,-115898,-106772,40570,319224,166171,-115355,225958,-120133,-115407,65966,233457,40334
1008625,-115875,-106755,40596,319160,166193,-115323,226036,-120098,-115379,66017,233442,40360
1008626,-115800,-106688,40655,319182,166074,-115229,226148,-120030,-115283,66075,233368,40419
1008627,-115752,-106660,40720,319289,165958,-115191,226200,-120028,-115247,66103,233428,40481
1008628,-115718,-106649,40744,319322,166006,-115165,226246,-120030,-115218,66113,233483,40509
1008629,-115708,-106658,40761,319334,166103,-115144,226275,-120028,-115193,66184,233422,40529
1008630,-115682,-106657,40757,319293,166196,-115137,226274,-120026,-115189,66232,233345,40523
1008631,-115669,-106647,40776,319283,166213,-115121,226268,-120032,-115178,66276,233162,40541
1008632,-115724,-106682,40776,319292,166222,-115138,226238,-120058,-115190,66248,233095,40541
1008633,-115792,-106702,40747,319368,166267,-115201,226158,-120116,-115255,66120,233108,40513
1008634,-115854,-106724,40731,319411,166276,-115270,226040,-120173,-115321,66030,233199,40495
1008635,-115867,-106734,40737,319449,166246,-115345,225991,-120166,-115394,65963,233217,40504
1008636,-115910,-106759,40709,319427,166126,-115395,225929,-120183,-115450,65929,233281,40473
1008637,-115937,-106760,40668,319374,166031,-115384,225916,-120174,-115436,65938,233306,40435
1008638,-115950,-106813,40605,319241,165951,-115349,225926,-120168,-115401,65933,233408,40370
1008639,-115955,-106836,40555,319128,165837,-115292,225931,-120179,-115342,65925,233517,40321
1008640,-115972,-106846,40555,319128,165833,-115245,225927,-120186,-115296,65970,233500,40321
1008641,-115970,-106836,40537,319166,165817,-115261,225936,-120164,-115311,66033,233567,40305
1008642,-115948,-106812,40552,319176,165878,-115256,225939,-120146,-115305,66029,233584,40319
1008643,-115935,-106797,40586,319152,165977,-115237,225974,-120123,-115289,66068,233581,40352
1008644,-115896,-106787,40616,319159,166084,-115232,226001,-120111,-115281,66105,233565,40382
1008645,-115864,-106782,40633,319135,166124,-115174,226033,-120100,-115224,66176,233525,40401
1008646,-115783,-106748,40675,319193,166112,-115112,226072,-120043,-115165,66226,233446,40441
1008647,-115769,-106732,40699,319247,166069,-115060,226119,-120015,-115112,66317,233416,40463
1008648,-115712,-106717,40713,319331,166091,-115079,226159,-120004,-115128,66315,233435,40478
1008649,-115695,-106709,40739,319384,166201,-115119,226181,-120008,-115174,66294,233476,40500
1008650,-115649,-106696,40759,319445,166252,-115132,226185,-120000,-115184,66301,233283,40526
1008651,-115645,-106682,40727,319420,166253,-115141,226215,-119980,-115193,66284,233148,40491
1008652,-115682,-106682,40681,319389,166223,-115159,226212,-120000,-115214,66232,233161,40446
1008653,-115699,-106688,40625,319350,166105,-115220,226172,-120046,-115271,66138,233250,40391
1008654,-115726,-106699,40581,319308,165920,-115266,226128,-120080,-115319,66105,233338,40345
1008655,-115745,-106723,40541,319321,165724,-115284,226085,-120104,-115338,66105,233443,40307
1008656,-115787,-106765,40550,319271,165654,-115312,226046,-120146,-115367,66074,233456,40314
1008657,-115817,-106784,40505,319217,165678,-115317,226027,-120161,-115370,66072,233398,40270
1008658,-115847,-106796,40498,319161,165613,-115254,225998,-120155,-115309,66071,233367,40264
1008659,-115901,-106818,40475,319020,165670,-115239,225982,-120143,-115293,66045,233424,40240
1008660,-115894,-106819,40492,318955,165767,-115252,225923,-120139,-115304,65988,233447,40257
1008661,-115857,-106800,40503,318964,165768,-115228,225890,-120120,-115279,66031,233464,40267
1008662,-115829,-106790,40495,319026,165802,-115231,225932,-120110,-115282,66068,233400,40262
1008663,-115811,-106783,40503,319063,165830,-115209,226027,-120088,-115265,66089,233370,40267
1008664,-115767,-106757,40534,319086,165888,-115197,226091,-120061,-115252,66099,233284,40296
1008665,-115716,-106737,40616,319073,165967,-115237,226154,-120041,-115290,66080,233140,40380
1008666,-115698,-106716,40673,319100,166085,-115273,226213,-120025,-115325,66059,233267,40440
1008667,-115690,-106710,40681,319142,166189,-115287,226237,-120030,-115343,66087,233362,40447
1008668,-115692,-106686,40703,319259,166234,-115264,226244,-120020,-115318,66123,233357,40466
1008669,-115682,-106675,40709,319278,166192,-115199,226243,-120001,-115250,66155,233422,40472
1008670,-115672,-106679,40687,319214,166172,-115147,226237,-119996,-115200,66109,233513,40456
1008671,-115662,-106664,40686,319238,166143,-115156,226203,-120024,-115210,66080,233518,40451
1008672,-115697,-106701,40604,319224,166102,-115181,226191,-120037,-115235,66103,233446,40368
1008673,-115725,-106734,40518,319155,166039,-115196,226181,-120055,-115252,66140,233315,40282
1008674,-115752,-106748,40496,319059,165997,-115214,226122,-120083,-115267,66125,233218,40264
1008675,-115752,-106768,40500,319047,165964,-115260,226075,-120127,-115314,66052,233245,40267
1008676,-115752,-106779,40494,319069,165882,-115302,226008,-120154,-115355,65992,233171,40259
1008677,-115774,-106797,40474,319092,165810,-115308,225919,-120164,-115361,65956,233155,40237
1008678,-115807,-106827,40432,319081,165734,-115340,225880,-120176,-115395,65963,233244,40196
1008679,-115816,-106838,40401,319032,165725,-115371,225901,-120180,-115425,65918,233255,40167
1008680,-115823,-106832,40394,319080,165700,-115455,225942,-120167,-115507,65884,233289,40159
1008681,-115816,-106812,40391,319102,165652,-115504,225939,-120158,-115557,65949,233337,40156
1008682,-115831,-106782,40425,319072,165613,-115483,225966,-120113,-115537,65983,233383,40187
1008683,-115830,-106765,40456,319044,165556,-115403,226045,-120080,-115455,65983,233365,40220
1008684,-115829,-106733,40528,319088,165544,-115348,226107,-120050,-115398,65979,233342,40292
1008685,-115781,-106712,40532,319096,165501,-115305,226145,-120050,-115355,66002,233388,40295
1008686,-115721,-106679,40513,319130,165548,-115258,226196,-120049,-115311,66005,233445,40278
1008687,-115678,-106669,40472,319080,165730,-115196,226234,-120028,-115249,66051,233439,40235
1008688,-115612,-106660,40448,319128,165935,-115168,226309,-120015,-115221,66064,233225,40210
1008689,-115576,-106660,40460,319192,165969,-115124,226362,-120012,-115177,66089,233082,40227
1008690,-115594,-106683,40479,319145,165969,-115149,226364,-120032,-115202,66100,233175,40244
1008691,-115673,-106711,40526,319092,166081,-115198,226300,-120064,-115253,66073,233292,40286
1008692,-115736,-106753,40509,319071,166136,-115244,226216,-120098,-115297,66044,233337,40276
1008693,-115762,-106800,40467,319035,166139,-115288,226129,-120120,-115345,65994,233361,40233
1008694,-115786,-106825,40424,318974,166097,-115314,226083,-120127,-115367,65928,233285,40190
1008695,-115804,-106819,40416,318964,166056,-115315,226063,-120130,-115367,65915,233095,40181
1008696,-115805,-106815,40407,318976,166043,-115355,226013,-120158,-115408,65861,232907,40175
1008697,-115841,-106822,40377,319005,166066,-115372,225950,-120192,-115426,65776,232923,40143
1008698,-115858,-106835,40348,318979,166066,-115377,225918,-120219,-115427,65679,232952,40117
1008699,-115847,-106836,40331,318984,165999,-115389,225936,-120230,-115441,65712,232816,40098
1008700,-115847,-106838,40321,318988,165956,-115386,225946,-120221,-115438,65736,232891,40086
1008701,-115862,-106846,40327,319060,165934,-115388,225948,-120225,-115442,65708,233014,40094
1008702,-115855,-106840,40371,319135,165861,-115380,225957,-120214,-115430,65716,233064,40136
1008703,-115833,-106833,40409,319150,165705,-115343,226013,-120178,-115397,65798,233162,40176
1008704,-115829,-106803,40413,319088,165646,-115308,226042,-120134,-115361,65885,233216,40178
1008705,-115785,-106783,40384,318995,165708,-115312,226044,-120079,-115363,65953,233278,40147
1008706,-115748,-106751,40363,318956,165810,-115330,226064,-120039,-115383,66041,233406,40128
1008707,-115726,-106760,40386,318939,165923,-115332,226146,-120057,-115382,66040,233460,40149
1008708,-115706,-106747,40432,319000,165928,-115332,226198,-120058,-115387,66016,233512,40197
1008709,-115705,-106748,40514,318995,165884,-115294,226213,-120064,-115347,66053,233577,40281
1008710,-115705,-106740,40538,319018,165902,-115259,226207,-120067,-115312,66101,233454,40304
1008711,-115725,-106758,40516,319061,165884,-115225,226214,-120083,-115277,66123,233361,40282
1008712,-115751,-106779,40480,319124,165767,-115218,226192,-120106,-115273,66053,233311,40245
1008713,-115791,-106803,40456,319163,165630,-115231,226119,-120140,-115287,65951,233371,40219
1008714,-115830,-106820,40454,319091,165516,-115243,226058,-120160,-115298,65914,233351,40216
1008715,-115874,-106855,40391,318918,165457,-115230,226045,-120159,-115285,65962,233415,40155
1008716,-115939,-106892,40350,318871,165432,-115262,225974,-120170,-115314,65934,233436,40118
1008717,-115949,-106890,40329,318827,165438,-115280,225955,-120186,-115332,65861,233408,40094
1008718,-115956,-106905,40308,318838,165486,-115318,225943,-120206,-115372,65748,233346,40073
1008719,-115989,-106926,40274,318798,165717,-115359,225919,-120216,-115415,65726,233252,40039
1008720,-116000,-106927,40287,318816,165875,-115400,225910,-120232,-115455,65718,233159,40052
1008721,-115994,-106883,40346,318887,165846,-115424,225921,-120183,-115479,65763,233045,40109
1008722,-115978,-106852,40359,318959,165815,-115476,225974,-120131,-115531,65902,232895,40124
1008723,-115914,-106796,40387,319054,165809,-115482,225998,-120094,-115533,65998,232689,40152
1008724,-115827,-106773,40407,319112,165885,-115451,225992,-120088,-115505,66040,232625,40172
1008725,-115838,-106757,40410,319113,165951,-115380,225958,-120105,-115434,66034,232758,40175
1008726,-115835,-106751,40469,319165,166002,-115308,225983,-120131,-115359,66016,232903,40236
1008727,-115782,-106735,40532,319255,165952,-115241,226047,-120145,-115292,66019,232974,40299
1008728,-115748,-106742,40545,319234,165932,-115191,226092,-120128,-115246,66009,233066,40308
1008729,-115718,-106737,40575,319193,165964,-115170,226113,-120105,-115224,65969,233186,40340
1008730,-115735,-106739,40578,319142,165956,-115126,226113,-120103,-115178,65965,233275,40344
1008731,-115766,-106759,40560,319142,165918,-115121,226098,-120119,-115170,66019,233278,40326
1008732,-115821,-106790,40544,319120,165916,-115140,226043,-120149,-115192,66019,233371,40310
1008733,-115847,-106830,40513,319085,165916,-115200,226016,-120196,-115254,65943,233337,40278
1008734,-115857,-106825,40488,319072,165829,-115245,226019,-120219,-115296,65914,233200,40255
1008735,-115854,-106821,40423,319063,165699,-115253,226022,-120214,-115306,65928,233136,40188
1008736,-115867,-106821,40414,319070,165591,-115302,225961,-120239,-115354,65803,233141,40183
1008737,-115881,-106824,40419,318963,165607,-115312,225942,-120250,-115362,65786,233106,40184
1008738,-115913,-106842,40402,318815,165639,-115284,225907,-120231,-115337,65862,233037,40169
1008739,-115922,-106823,40409,318780,165522,-115292,225881,-120215,-115346,65847,233055,40176
1008740,-115947,-106837,40457,318748,165541,-115318,225808,-120218,-115371,65831,233263,40221
1008741,-115951,-106834,40484,318722,165586,-115338,225868,-120225,-115388,65884,233294,40251
1008742,-115925,-106824,40503,318774,165600,-115327,225926,-120227,-115379,65942,233272,40270
1008743,-115925,-106836,40478,318851,165695,-115317,225893,-120233,-115371,66003,233346,40244
1008744,-115917,-106839,40483,318910,165917,-115364,225901,-120218,-115418,66018,233382,40246
1008745,-115886,-106819,40490,318996,165969,-115400,225939,-120207,-115452,66004,233374,40257
1008746,-115856,-106806,40515,319107,165957,-115394,226028,-120172,-115448,66047,233427,40281
1008747,-115820,-106794,40526,319225,165953,-115354,226073,-120168,-115407,66090,233444,40293
1008748,-115759,-106738,40494,319337,165808,-115293,226096,-120136,-115349,66152,233423,40258
1008749,-115720,-106713,40477,319446,165683,-115230,226100,-120142,-115283,66167,233520,40246
1008750,-115715,-106690,40483,319457,165674,-115233,226100,-120157,-115286,66104,233588,40247
1008751,-115714,-106713,40416,319275,165927,-115270,226137,-120183,-115323,66130,233510,40183
1008752,-115731,-106744,40406,319176,166098,-115295,226103,-120214,-115349,66061,233443,40173
1008753,-115744,-106758,40435,319172,166176,-115351,226048,-120255,-115405,65920,233343,40199
1008754,-115777,-106766,40476,319199,166181,-115409,225999,-120309,-115463,65766,233235,40242
1008755,-115817,-106785,40512,319188,166162,-115446,226011,-120322,-115499,65768,233131,40276
1008756,-115869,-106815,40486,319148,166147,-115426,225922,-120322,-115479,65801,232982,40252
1008757,-115876,-106825,40490,319134,166181,-115410,225871,-120307,-115460,65802,232811,40256
1008758,-115888,-106840,40487,319163,166188,-115410,225825,-120323,-115464,65771,232751,40251
1008759,-115922,-106853,40498,319123,166143,-115446,225790,-120322,-115498,65771,232886,40264
1008760,-115920,-106831,40500,319070,166050,-115454,225781,-120317,-115509,65795,233017,40268
1008761,-115918,-106815,40501,319054,165969,-115432,225805,-120298,-115485,65811,233148,40268
1008762,-115889,-106800,40506,319076,165951,-115407,225805,-120291,-115462,65764,233242,40272
1008763,-115838,-106793,40527,319117,165941,-115389,225861,-120258,-115441,65851,233172,40293
1008764,-115781,-106772,40566,319142,165874,-115382,225998,-120248,-115433,65932,233112,40333
1008765,-115753,-106762,40577,319200,165842,-115413,226053,-120249,-115469,65927,233162,40342
1008766,-115728,-106757,40579,319231,165880,-115427,226127,-120194,-115481,65971,233328,40349
1008767,-115709,-106729,40588,319172,165858,-115414,226181,-120174,-115468,66060,233480,40353
1008768,-115700,-106701,40607,319111,165913,-115373,226210,-120162,-115425,66122,233557,40370
1008769,-115702,-106692,40602,319127,165906,-115329,226224,-120161,-115380,66175,233567,40366
1008770,-115712,-106686,40599,319196,165894,-115281,226230,-120162,-115332,66140,233572,40366
1008771,-115714,-106697,40563,319200,165911,-115263,226187,-120183,-115315,66115,233585,40324
1008772,-115731,-106727,40536,319212,165970,-115287,226134,-120189,-115340,66118,233481,40302
1008773,-115754,-106751,40473,319243,165993,-115383,226115,-120197,-115435,66100,233337,40240
1008774,-115763,-106765,40439,319210,165935,-115402,226058,-120223,-115456,66047,233283,40205
1008775,-115764,-106777,40441,319116,165913,-115406,226005,-120226,-115460,66052,233293,40208
1008776,-115788,-106804,40455,318915,165901,-115398,225957,-120245,-115453,66054,233281,40223
1008777,-115795,-106828,40422,318845,165849,-115407,225916,-120265,-115457,66016,233390,40188
1008778,-115817,-106849,40372,318824,165853,-115395,225842,-120294,-115448,66016,233481,40138
1008779,-115860,-106861,40387,318883,165918,-115391,225840,-120314,-115442,65994,233359,40152
1008780,-115879,-106869,40411,318968,165916,-115366,225887,-120296,-115419,66013,233211,40180
1008781,-115869,-106819,40472,319095,165898,-115395,225860,-120294,-115448,65995,233191,40236
1008782,-115830,-106807,40494,319178,165879,-115395,225917,-120282,-115448,65957,233160,40260
1008783,-115798,-106771,40512,319248,165897,-115393,225999,-120271,-115444,65886,233206,40278
1008784,-115780,-106754,40537,319299,165897,-115367,226049,-120244,-115419,65853,233321,40304
1008785,-115776,-106756,40584,319324,165888,-115325,226087,-120221,-115380,65863,233320,40348
1008786,-115740,-106739,40585,319365,166024,-115264,226148,-120179,-115319,65953,233237,40352
1008787,-115718,-106717,40557,319330,166023,-115218,226219,-120146,-115271,66065,233284,40324
1008788,-115694,-106703,40559,319368,166077,-115236,226270,-120133,-115290,66114,233330,40328
1008789,-115686,-106705,40570,319343,166129,-115223,226275,-120103,-115275,66151,233436,40336
1008790,-115705,-106709,40567,319319,166192,-115237,226255,-120105,-115290,66143,233523,40332
1008791,-115719,-106708,40584,319241,166146,-115247,226212,-120106,-115299,66142,233583,40349
1008792,-115751,-106688,40592,319260,166085,-115292,226155,-120141,-115346,66104,233585,40357
1008793,-115790,-106697,40591,319206,166052,-115302,226105,-120164,-115355,66068,233527,40358
1008794,-115817,-106736,40544,319111,166054,-115299,226075,-120205,-115351,66065,233446,40310
1008795,-115816,-106736,40509,319154,166004,-115312,226025,-120221,-115363,66074,233381,40273
1008796,-115838,-106742,40438,319168,166009,-115339,225970,-120244,-115395,66015,233303,40202
1008797,-115802,-106748,40410,319179,165916,-115352,225992,-120248,-115404,65971,233206,40175
1008798,-115842,-106770,40445,319190,165879,-115353,226000,-120230,-115405,65906,233151,40209
1008799,-115858,-106774,40467,319224,165945,-115391,225921,-120245,-115443,65870,233139,40234
1008800,-115875,-106781,40523,319284,166028,-115411,225876,-120245,-115464,65782,233165,40289
1008801,-115829,-106770,40535,319242,166052,-115401,225936,-120231,-115452,65807,233177,40302
1008802,-115833,-106753,40537,319196,166051,-115366,225988,-120221,-115420,65905,233274,40304
1008803,-115804,-106739,40563,319207,166053,-115333,226008,-120199,-115386,65987,233219,40332
1008804,-115734,-106700,40575,319233,166159,-115304,226072,-120153,-115358,66073,232967,40341
1008805,-115696,-106674,40625,319321,166176,-115272,226056,-120136,-115326,66084,232874,40391
1008806,-115672,-106658,40660,319412,166236,-115236,226076,-120123,-115287,66061,233078,40429
1008807,-115695,-106661,40602,319376,166401,-115224,226098,-120116,-115277,66105,233270,40369
1008808,-115685,-106618,40609,319426,166403,-115248,226119,-120085,-115302,66162,233309,40377
1008809,-115672,-106599,40652,319470,166300,-115242,226141,-120073,-115293,66171,233473,40419
1008810,-115683,-106623,40664,319450,166199,-115239,226177,-120055,-115290,66160,233648,40429
1008811,-115706,-106640,40655,319327,166153,-115219,226176,-120075,-115273,66179,233762,40419
1008812,-115740,-106655,40640,319290,165986,-115205,226098,-120097,-115256,66217,233826,40407
1008813,-115787,-106660,40621,319177,165862,-115192,226001,-120093,-115242,66253,233890,40388
1008814,-115829,-106679,40579,318996,165798,-115211,225982,-120114,-115264,66244,233888,40345
1008815,-115814,-106692,40533,318883,165897,-115233,226026,-120122,-115285,66200,233752,40299
1008816,-115835,-106717,40513,318890,165946,-115271,225994,-120160,-115323,66127,233615,40279
1008817,-115863,-106725,40510,318939,165941,-115314,225974,-120190,-115364,66093,233537,40276
1008818,-115857,-106735,40515,318958,165940,-115337,225983,-120202,-115389,66026,233403,40280
1008819,-115850,-106755,40513,318971,165998,-115352,225971,-120216,-115405,65993,233260,40279
1008820,-115814,-106744,40527,319055,166058,-115367,226001,-120208,-115419,65953,233095,40293
1008821,-115780,-106735,40542,319190,166072,-115395,226000,-120194,-115447,65922,233000,40310
1008822,-115804,-106726,40522,319258,166081,-115393,225999,-120159,-115445,65955,233092,40288
1008823,-115827,-106701,40555,319293,166128,-115389,226005,-120170,-115442,65974,233213,40320
1008824,-115830,-106694,40577,319266,166195,-115394,226066,-120155,-115448,65985,233311,40344
1008825,-115771,-106667,40611,319267,166209,-115370,226135,-120120,-115427,65951,233279,40377
1008826,-115709,-106642,40647,319309,166242,-115323,226193,-120090,-115375,66007,233221,40416
1008827,-115683,-106618,40667,319387,166254,-115250,226235,-120048,-115304,66025,233184,40430
1008828,-115605,-106584,40703,319487,166301,-115221,226250,-120041,-115274,65929,233135,40466
1008829,-115551,-106562,40713,319532,166292,-115189,226251,-120019,-115241,65870,233168,40481
1008830,-115533,-106568,40722,319560,166178,-115205,226221,-120013,-115259,65894,233244,40488
1008831,-115568,-106577,40695,319512,166062,-115255,226213,-120025,-115309,66001,233321,40459
1008832,-115597,-106617,40656,319395,165942,-115283,226211,-120053,-115337,66058,233375,40420
1008833,-115625,-106610,40628,319394,165926,-115364,226141,-120075,-115415,65999,233283,40392
1008834,-115669,-106627,40591,319350,165999,-115404,226090,-120125,-115457,65922,233176,40358
1008835,-115717,-106647,40544,319274,166094,-115403,226074,-120157,-115458,65865,233140,40310
1008836,-115758,-106697,40516,319173,166075,-115410,225998,-120190,-115464,65827,233196,40283
1008837,-115757,-106705,40527,319196,165991,-115422,225982,-120221,-115472,65806,233140,40289
1008838,-115824,-106723,40516,319176,165920,-115417,225964,-120239,-115473,65825,233141,40277
1008839,-115847,-106749,40486,319073,165902,-115415,225913,-120251,-115469,65868,233235,40251
1008840,-115877,-106754,40474,319013,165875,-115397,225923,-120247,-115452,65877,233262,40238
1008841,-115878,-106738,40478,318986,165815,-115377,225979,-120227,-115433,65928,233322,40241
1008842,-115883,-106729,40481,319008,165790,-115333,226026,-120208,-115386,65966,233344,40244
1008843,-115818,-106688,40477,319008,165833,-115311,226071,-120157,-115366,66010,233203,40240
1008844,-115765,-106647,40488,319039,165858,-115328,226100,-120120,-115382,66075,233122,40251
1008845,-115752,-106647,40442,319030,165947,-115358,226079,-120116,-115412,66052,233351,40205
1008846,-115724,-106641,40459,319137,165976,-115361,226099,-120129,-115415,66043,233523,40224
1008847,-115725,-106608,40494,319241,165954,-115302,226094,-120100,-115358,66093,233569,40259
