Timestamp (ms),Ch0 (uV),Ch1 (uV),Ch2 (uV),Ch3 (uV),Ch4 (uV),Ch5 (uV),Ch6 (uV),Ch7 (uV),Ch8 (uV),Ch9 (uV),Ch10 (uV),Ch11 (uV)
1021921,-115208,-107491,39270,317775,166277,-114154,225469,-119229,-114207,67054,233079,39036
1021922,-115202,-107490,39287,317779,166342,-114172,225503,-119236,-114225,67031,233144,39051
1021923,-115177,-107465,39315,317851,166280,-114162,225521,-119242,-114215,67045,233243,39078
1021924,-115152,-107452,39292,317841,166273,-114103,225589,-119251,-114156,67088,233377,39057
1021925,-115139,-107452,39277,317808,166360,-114068,225627,-119239,-114119,67123,233449,39045
1021926,-115092,-107433,39291,317839,166522,-114043,225663,-119213,-114101,67158,233420,39060
1021927,-115039,-107412,39335,317901,166644,-114031,225687,-119203,-114085,67180,233346,39100
1021928,-115057,-107387,39358,317999,166747,-114018,225704,-119190,-114072,67206,233315,39120
1021936,-115126,-107474,39291,317884,166196,-114144,225658,-119267,-114195,67084,233392,39058
1021938,-115107,-107499,39301,317828,166102,-114155,225493,-119247,-114212,67054,233340,39065
1021939,-115119,-107508,39319,317820,166069,-114119,225436,-119231,-114175,67112,233208,39084
1021940,-115109,-107499,39329,317868,166080,-114063,225421,-119198,-114116,67098,233004,39094
1021941,-115107,-107481,39331,317844,166201,-114020,225428,-119187,-114074,66991,233070,39097
1021942,-115140,-107483,39299,317825,166317,-114022,225435,-119213,-114076,66965,233290,39063
1021943,-115143,-107476,39305,317897,166347,-114035,225490,-119195,-114085,67014,233317,39072
1021944,-115152,-107451,39290,317991,166391,-114046,225526,-119176,-114101,67068,233357,39056
1021945,-115138,-107465,39319,318049,166506,-114067,225490,-119181,-114117,67124,233382,39085
1021946,-115136,-107433,39348,318043,166645,-114072,225489,-119169,-114125,67178,233514,39117
1021947,-115113,-107412,39376,318098,166730,-114043,225562,-119170,-114098,67180,233516,39144
1021948,-115054,-107374,39368,318135,166764,-114025,225699,-119170,-114080,67219,233428,39135
1021949,-115017,-107373,39351,318171,166794,-113996,225772,-119166,-114049,67245,233438,39116
1021950,-115013,-107371,39355,318154,166750,-113979,225787,-119168,-114032,67266,233476,39121
1021951,-115025,-107376,39330,318108,166732,-113973,225807,-119174,-114027,67225,233498,39095
1021952,-115071,-107387,39326,318087,166707,-113992,225808,-119171,-114045,67231,233483,39092
1021953,-115103,-107418,39319,318049,166653,-114023,225774,-119187,-114075,67198,233398,39085
1021954,-115130,-107448,39304,318064,166496,-114018,225693,-119214,-114070,67170,233351,39072
1021955,-115111,-107448,39306,318074,166420,-114037,225617,-119234,-114090,67056,233353,39070
1021956,-115116,-107469,39285,318011,166374,-114053,225582,-119227,-114107,66992,233294,39052
1021957,-115112,-107509,39259,317988,166351,-114080,225558,-119252,-114129,67023,233212,39027
1021958,-115097,-107484,39228,317971,166313,-114090,225491,-119248,-114142,67043,233128,38996
1021959,-115082,-107472,39202,317858,166444,-114120,225403,-119260,-114174,67007,233110,38969
1021960,-115073,-107465,39157,317823,166492,-114109,225373,-119233,-114162,67002,233097,38924
1021961,-115044,-107442,39172,317802,166364,-114078,225433,-119189,-114132,67074,233049,38936
1021962,-115035,-107420,39209,317817,166150,-114036,225533,-119147,-114089,67126,233038,38974
1021963,-115050,-107429,39253,317792,166180,-113997,225592,-119117,-114052,67131,233067,39017
1021964,-115046,-107450,39259,317761,166289,-114001,225663,-119129,-114054,67173,233176,39024
1021965,-115017,-107441,39314,317823,166249,-114005,225726,-119143,-114056,67206,233209,39078
1021966,-114966,-107408,39350,317837,166271,-113995,225729,-119126,-114046,67216,233376,39119
1021967,-114945,-107420,39337,317866,166304,-113983,225756,-119097,-114035,67254,233492,39106
1021968,-114923,-107402,39334,317959,166485,-114010,225800,-119107,-114061,67241,233474,39102
1021969,-114927,-107393,39346,318015,166675,-114015,225820,-119118,-114068,67221,233448,39111
1021970,-114934,-107381,39346,318079,166801,-114040,225818,-119139,-114094,67172,233452,39111
1021971,-114945,-107396,39340,318089,166842,-114089,225853,-119164,-114141,67082,233468,39107
1021972,-114967,-107414,39334,318066,166909,-114107,225836,-119217,-114157,67043,233386,39103
1021973,-114966,-107408,39329,318048,166883,-114139,225737,-119229,-114191,67043,233223,39095
1021974,-114991,-107417,39346,318017,166797,-114143,225633,-119227,-114195,66987,233145,39111
1021975,-115062,-107441,39340,318006,166668,-114136,225608,-119239,-114189,66974,233203,39106
1021976,-115090,-107455,39278,317978,166438,-114126,225594,-119218,-114182,67041,233170,39045
1021977,-115115,-107471,39252,317902,166295,-114112,225533,-119199,-114163,67057,233255,39017
1021978,-115118,-107494,39235,317855,166300,-114117,225456,-119211,-114170,67008,233389,38999
1021979,-115136,-107510,39204,317733,166303,-114144,225493,-119189,-114198,66958,233365,38973
1021980,-115142,-107510,39185,317775,166306,-114144,225550,-119183,-114196,66984,233274,38951
1021981,-115112,-107478,39196,317789,166294,-114107,225553,-119148,-114158,67023,233202,38964
1021982,-115111,-107471,39182,317762,166221,-114067,225573,-119127,-114119,67064,233289,38952
1021983,-115077,-107472,39210,317828,166143,-114045,225621,-119142,-114100,67052,233417,38976
1021984,-115020,-107450,39222,317865,166229,-114077,225671,-119121,-114131,66992,233476,38988
1021985,-114995,-107461,39277,317831,166317,-114123,225739,-119091,-114176,67061,233427,39041
1021986,-114938,-107418,39306,317863,166444,-114106,225809,-119052,-114159,67112,233223,39073
1021987,-114910,-107370,39359,317985,166568,-114119,225850,-119033,-114171,67103,233114,39126
1021988,-114870,-107350,39359,318098,166677,-114083,225873,-119060,-114133,67018,233155,39128
1021989,-114860,-107338,39337,318104,166714,-114011,225852,-119022,-114061,67090,233190,39103
1021990,-114857,-107325,39281,318051,166685,-113936,225870,-118991,-113988,67180,233160,39047
1021991,-114879,-107345,39249,318021,166693,-113934,225905,-119037,-113988,67218,233175,39014
1021992,-114942,-107373,39251,318003,166724,-113976,225845,-119086,-114026,67196,233223,39019
1021993,-115009,-107409,39286,317966,166647,-114024,225749,-119112,-114076,67156,233316,39053
1021994,-115042,-107452,39305,317926,166572,-114047,225646,-119139,-114099,67125,233348,39070
1021995,-115051,-107497,39300,317890,166484,-114053,225573,-119119,-114108,67166,233309,39070
1021996,-115076,-107485,39286,317876,166414,-114065,225507,-119148,-114119,67155,233294,39052
1021997,-115107,-107491,39266,317866,166375,-114077,225467,-119171,-114129,67103,233311,39033
1021998,-115106,-107510,39261,317834,166398,-114073,225436,-119187,-114125,66994,233313,39027
1021999,-115109,-107522,39231,317767,166469,-114048,225456,-119180,-114101,66920,233210,38999
1022000,-115097,-107517,39208,317676,166494,-113999,225528,-119175,-114052,66961,233047,38978
1022001,-115100,-107495,39252,317684,166533,-113996,225600,-119161,-114051,66946,233017,39020
1022002,-115105,-107475,39245,317729,166547,-114010,225606,-119169,-114063,66922,233175,39011
1022003,-115078,-107471,39228,317778,166419,-114000,225633,-119120,-114052,67031,233286,38996
1022004,-115068,-107443,39257,317846,166321,-113998,225678,-119093,-114055,67141,233377,39025
1022005,-115050,-107457,39291,317902,166347,-114028,225691,-119091,-114079,67167,233466,39061
1022006,-114992,-107419,39331,317903,166420,-113990,225773,-119059,-114043,67198,233455,39097
1022007,-114961,-107393,39367,317926,166503,-114021,225833,-119069,-114076,67213,233500,39133
1022008,-114935,-107342,39406,317955,166568,-114043,225889,-119078,-114095,67203,233489,39173
1022009,-114921,-107330,39420,317989,166556,-114045,225943,-119053,-114098,67240,233521,39186
1022010,-114891,-107299,39426,318020,166372,-113997,225985,-119025,-114048,67262,233494,39194
1022011,-114889,-107281,39483,318053,166190,-113978,225955,-119020,-114030,67253,233450,39250
1022012,-114908,-107273,39475,318085,166096,-113978,225893,-119038,-114033,67210,233451,39240
1022013,-114914,-107288,39461,318017,166210,-113980,225823,-119045,-114035,67074,233349,39228
1022014,-114957,-107341,39396,317891,166292,-113955,225760,-119030,-114006,67089,233235,39163
1022015,-115017,-107384,39359,317891,166387,-113980,225685,-119068,-114035,67100,233175,39126
1022016,-115073,-107415,39346,317936,166442,-114012,225601,-119133,-114064,67013,233238,39113
1022017,-115094,-107423,39311,317956,166481,-114026,225557,-119148,-114080,66930,233162,39076
1022018,-115110,-107440,39260,317927,166459,-114046,225571,-119136,-114101,66975,233093,39027
1022019,-115122,-107457,39248,317875,166392,-114053,225583,-119137,-114106,67012,233051,39013
1022020,-115084,-107405,39291,317839,166277,-114049,225604,-119100,-114102,67024,232959,39056
1022021,-115073,-107407,39326,317798,166426,-114072,225623,-119068,-114123,67061,232800,39090
1022022,-115032,-107386,39349,317867,166469,-114074,225648,-119028,-114126,67090,232796,39114
1022023,-115011,-107384,39318,317921,166499,-114095,225644,-119025,-114146,67065,233033,39083
1022024,-115014,-107372,39339,317986,166528,-114078,225654,-119021,-114130,67061,233190,39107
1022025,-115032,-107381,39312,318051,166550,-114032,225656,-119020,-114084,67088,233301,39076
1022026,-115040,-107359,39335,318059,166675,-113999,225679,-119029,-114055,67094,233491,39097
1022027,-115059,-107345,39387,318015,166774,-113976,225715,-119034,-114028,67137,233642,39152
1022028,-115029,-107325,39407,318058,166732,-113922,225765,-119003,-113973,67201,233666,39172
1022029,-115007,-107299,39425,318133,166729,-113890,225767,-118985,-113942,67254,233653,39193
1022030,-114970,-107294,39480,318144,166745,-113921,225807,-118989,-113974,67263,233609,39247
1022031,-114961,-107291,39512,318098,166744,-113917,225808,-118986,-113970,67232,233609,39277
1022032,-114932,-107313,39500,318049,166733,-113933,225809,-119016,-113984,67210,233548,39266
1022033,-114957,-107330,39497,318043,166730,-113974,225797,-119042,-114027,67142,233414,39263
1022034,-114968,-107350,39470,318028,166700,-113995,225762,-119062,-114048,67041,233302,39234
1022035,-114967,-107368,39445,318046,166624,-114015,225685,-119066,-114068,66990,233322,39207
1022036,-114960,-107370,39476,318120,166435,-114036,225532,-119086,-114089,66940,233313,39241
1022037,-114968,-107390,39444,318101,166326,-114053,225433,-119065,-114107,66987,233317,39210
1022038,-115032,-107429,39353,317958,166271,-114017,225413,-119058,-114072,67060,233440,39119
1022039,-115076,-107461,39282,317770,166317,-114005,225402,-119054,-114060,67131,233535,39047
1022040,-115069,-107445,39292,317690,166239,-114008,225400,-119038,-114063,67161,233601,39056
1022041,-115045,-107426,39309,317778,166206,-114016,225501,-119044,-114067,67164,233545,39071
1022042,-115052,-107408,39329,317832,166310,-114017,225609,-119043,-114070,67155,233493,39093
1022043,-115032,-107393,39303,317880,166362,-113984,225740,-119031,-114037,67152,233391,39066
1022044,-114977,-107353,39321,317986,166350,-113944,225845,-119003,-113999,67161,233303,39091
1022045,-114961,-107344,39315,317993,166463,-113934,225901,-119013,-113988,67188,233303,39079
1022046,-114926,-107325,39345,318077,166610,-113931,225912,-119044,-113985,67183,233404,39112
1022047,-114876,-107310,39386,318189,166699,-113931,225873,-119021,-113983,67200,233424,39150
1022048,-114845,-107298,39442,318240,166728,-113896,225896,-118997,-113948,67225,233408,39204
1022049,-114821,-107265,39519,318246,166715,-113898,225967,-118974,-113955,67256,233432,39283
1022050,-114831,-107263,39547,318246,166758,-113920,225968,-118983,-113975,67206,233511,39309
1022051,-114834,-107266,39525,318182,166798,-113938,225974,-118974,-113989,67164,233521,39290
1022052,-114835,-107263,39506,318052,166754,-113949,226011,-118961,-114005,67086,233487,39272
1022053,-114841,-107274,39473,317986,166667,-113978,226013,-118970,-114033,67095,233441,39235
1022054,-114862,-107284,39439,318021,166541,-114027,225977,-118976,-114079,67091,233277,39208
1022055,-114865,-107305,39433,318104,166488,-114064,225904,-119000,-114116,67086,233197,39198
1022056,-114919,-107344,39395,318028,166523,-114132,225808,-119043,-114184,67084,233289,39160
1022057,-114941,-107346,39411,318000,166557,-114151,225718,-119064,-114203,67048,233254,39176
1022058,-114952,-107326,39441,317953,166524,-114133,225651,-119046,-114182,67048,233112,39207
1022059,-114938,-107322,39451,317990,166398,-114102,225650,-119036,-114154,67031,233042,39213
1022060,-114933,-107328,39415,317922,166350,-114073,225695,-119049,-114126,67030,233098,39178
1022061,-114946,-107332,39394,317861,166499,-114051,225728,-119061,-114106,67031,233134,39156
1022062,-114933,-107311,39374,317902,166586,-114019,225747,-119046,-114072,67061,233122,39137
1022063,-114934,-107303,39381,317966,166634,-113983,225713,-119054,-114036,67084,233260,39146
1022064,-114920,-107299,39381,318045,166596,-113970,225752,-119026,-114022,67114,233345,39145
1022065,-114900,-107287,39404,318100,166583,-113939,225813,-118991,-113993,67157,233312,39171
1022066,-114876,-107290,39432,318154,166615,-113921,225878,-118978,-113973,67161,233431,39198
1022067,-114846,-107301,39439,318150,166755,-113899,225904,-118955,-113949,67206,233542,39203
1022068,-114812,-107271,39467,318166,166770,-113876,225948,-118920,-113930,67287,233505,39231
1022069,-114799,-107268,39497,318209,166787,-113861,225969,-118904,-113914,67325,233511,39259
1022070,-114792,-107251,39504,318233,166727,-113867,225980,-118901,-113919,67303,233600,39267
1022071,-114780,-107234,39525,318281,166597,-113867,225976,-118893,-113921,67279,233545,39290
1022072,-114805,-107244,39510,318259,166515,-113896,225955,-118898,-113950,67265,233573,39275
1022073,-114855,-107265,39495,318217,166580,-113944,225882,-118916,-113997,67253,233429,39262
1022074,-114892,-107283,39474,318172,166650,-113974,225833,-118936,-114027,67248,233283,39241
1022075,-114927,-107299,39451,318107,166669,-113980,225839,-118938,-114035,67201,233238,39218
1022076,-114940,-107316,39427,318076,166633,-113990,225833,-118964,-114044,67144,233177,39193
1022077,-114967,-107331,39423,318077,166648,-113989,225809,-118985,-114041,67104,233119,39190
1022078,-114978,-107354,39401,318108,166687,-114005,225771,-119026,-114058,67011,233151,39163
1022079,-114987,-107376,39349,318080,166594,-114033,225719,-119031,-114086,67020,233292,39116
1022080,-114973,-107371,39337,318024,166454,-114012,225722,-119029,-114067,67101,233331,39104
1022081,-114940,-107342,39289,317942,166350,-113930,225795,-118978,-113981,67204,233297,39055
1022082,-114922,-107331,39295,317950,166382,-113913,225830,-118998,-113968,67197,233427,39060
1022083,-114917,-107336,39311,317917,166497,-113878,225841,-118985,-113934,67201,233523,39075
1022084,-114907,-107323,39374,317857,166524,-113854,225871,-118964,-113909,67296,233677,39139
1022085,-114884,-107324,39430,317904,166518,-113857,225867,-118964,-113911,67294,233783,39197
1022086,-114865,-107303,39486,317989,166521,-113824,225873,-118910,-113879,67352,233843,39254
1022087,-114833,-107256,39528,318017,166507,-113796,225942,-118842,-113849,67370,233863,39291
1022088,-114792,-107208,39582,318083,166507,-113772,226012,-118762,-113828,67427,233718,39346
1022089,-114746,-107201,39587,318122,166684,-113814,226082,-118715,-113868,67471,233591,39353
1022090,-114703,-107213,39547,318146,166889,-113882,226048,-118721,-113934,67427,233703,39314
1022091,-114688,-107188,39526,318216,166985,-113868,225907,-118713,-113922,67424,233702,39289
1022092,-114699,-107178,39515,318263,166929,-113868,225948,-118720,-113919,67398,233624,39282
1022093,-114732,-107204,39456,318135,166848,-113837,225994,-118777,-113891,67360,233743,39224
1022094,-114778,-107209,39406,318060,166791,-113823,225982,-118822,-113879,67330,233817,39170
1022095,-114792,-107202,39417,318091,166750,-113816,225930,-118880,-113869,67297,233743,39181
1022096,-114839,-107222,39402,318110,166770,-113827,225834,-118888,-113878,67257,233677,39166
1022097,-114853,-107254,39404,318090,166721,-113806,225790,-118888,-113860,67245,233613,39172
1022098,-114854,-107283,39451,318120,166715,-113819,225716,-118889,-113872,67227,233495,39216
1022099,-114865,-107280,39507,318155,166671,-113831,225693,-118910,-113883,67197,233386,39272
1022100,-114869,-107289,39505,318182,166656,-113825,225760,-118914,-113880,67185,233302,39269
1022101,-114842,-107301,39500,318195,166738,-113825,225830,-118901,-113874,67186,233261,39267
1022102,-114824,-107272,39522,318211,166728,-113794,225813,-118873,-113846,67251,233291,39286
1022103,-114804,-107254,39544,318229,166633,-113787,225823,-118860,-113840,67306,233395,39309
1022104,-114778,-107229,39587,318219,166459,-113789,225932,-118845,-113841,67389,233502,39351
1022105,-114779,-107218,39590,318186,166375,-113776,226007,-118821,-113827,67424,233632,39357
1022106,-114726,-107189,39592,318116,166450,-113747,226062,-118778,-113797,67413,233688,39355
1022107,-114684,-107176,39591,318173,166463,-113726,226115,-118756,-113780,67436,233731,39356
1022108,-114651,-107175,39609,318269,166442,-113728,226198,-118750,-113778,67466,233705,39374
1022109,-114641,-107161,39624,318298,166609,-113735,226224,-118789,-113791,67456,233705,39389
1022110,-114665,-107176,39624,318244,166786,-113787,226202,-118792,-113840,67431,233765,39386
1022111,-114668,-107182,39608,318205,166795,-113797,226173,-118820,-113852,67435,233781,39374
1022112,-114689,-107184,39597,318161,166714,-113809,226113,-118824,-113863,67421,233746,39363
1022113,-114744,-107203,39564,318133,166813,-113817,225994,-118852,-113874,67365,233656,39332
1022114,-114795,-107228,39561,318141,166826,-113837,225884,-118860,-113893,67308,233478,39328
1022115,-114822,-107224,39511,318094,166712,-113827,225852,-118837,-113880,67341,233391,39277
1022116,-114852,-107254,39458,317988,166667,-113845,225779,-118868,-113897,67281,233448,39224
1022117,-114875,-107259,39414,317950,166795,-113868,225679,-118919,-113919,67188,233451,39179
1022118,-114924,-107271,39368,317941,166891,-113883,225690,-118927,-113939,67183,233341,39133
1022119,-114939,-107283,39370,317978,166813,-113883,225694,-118926,-113937,67153,233258,39135
1022120,-114933,-107296,39392,318000,166795,-113872,225752,-118910,-113928,67143,233163,39157
1022121,-114951,-107293,39457,318025,166749,-113866,225818,-118921,-113917,67139,233162,39225
1022122,-114946,-107287,39525,318037,166613,-113912,225836,-118906,-113961,67151,233289,39294
1022123,-114920,-107269,39553,318046,166534,-113948,225899,-118894,-113999,67189,233359,39321
1022124,-114884,-107276,39517,318039,166550,-113942,225946,-118867,-113998,67252,233460,39284
1022125,-114836,-107266,39497,318005,166636,-113894,225967,-118840,-113948,67288,233390,39262
1022126,-114802,-107237,39509,318066,166659,-113829,225961,-118811,-113883,67358,233371,39273
1022127,-114803,-107225,39520,318116,166659,-113813,225915,-118817,-113866,67362,233637,39286
1022128,-114782,-107201,39502,318147,166704,-113784,225935,-118795,-113835,67394,233650,39268
1022129,-114742,-107192,39507,318207,166710,-113741,225986,-118785,-113794,67466,233527,39277
1022130,-114755,-107182,39529,318257,166744,-113760,225990,-118810,-113812,67439,233575,39296
1022131,-114781,-107209,39517,318203,166668,-113773,225977,-118858,-113827,67371,233805,39284
1022132,-114827,-107246,39525,318195,166599,-113813,225952,-118886,-113865,67347,233798,39293
1022133,-114856,-107249,39557,318181,166456,-113839,225952,-118920,-113891,67333,233680,39323
1022134,-114886,-107284,39550,318152,166334,-113853,225931,-118949,-113905,67295,233637,39315
1022135,-114912,-107314,39526,318011,166360,-113874,225884,-118973,-113929,67265,233660,39293
1022136,-114922,-107331,39525,317881,166432,-113877,225811,-118973,-113925,67209,233524,39291
1022137,-114932,-107332,39511,317763,166472,-113869,225735,-118972,-113924,67237,233406,39278
1022138,-114963,-107348,39486,317803,166459,-113891,225669,-118996,-113943,67244,233373,39253
1022139,-114991,-107345,39457,317930,166392,-113919,225644,-118988,-113970,67200,233345,39222
1022140,-115007,-107351,39433,317993,166385,-113956,225651,-119012,-114009,67141,233382,39197
1022141,-115016,-107360,39420,317937,166559,-113987,225665,-119035,-114040,67106,233471,39188
1022142,-115033,-107369,39399,317885,166624,-113970,225700,-119056,-114022,67128,233565,39165
1022143,-114998,-107352,39415,317913,166640,-113938,225765,-119022,-113991,67127,233528,39180
1022144,-114946,-107330,39429,317971,166743,-113927,225812,-119023,-113980,67130,233387,39196
1022145,-114911,-107318,39433,318026,166850,-113929,225840,-119023,-113982,67139,233293,39198
1022146,-114875,-107305,39451,318096,166900,-113882,225897,-118963,-113936,67135,233211,39216
1022147,-114827,-107293,39484,318155,166872,-113849,225954,-118920,-113902,67144,233172,39250
1022148,-114802,-107263,39518,318195,166816,-113856,225982,-118901,-113911,67222,233250,39286
1022149,-114794,-107250,39535,318225,166760,-113877,226002,-118877,-113928,67278,233316,39302
1022150,-114797,-107245,39523,318245,166793,-113906,225995,-118912,-113961,67252,233423,39293
1022151,-114806,-107241,39478,318237,166822,-113938,225960,-118953,-113992,67207,233465,39244
1022152,-114818,-107249,39427,318171,166733,-113948,225930,-118976,-113999,67229,233473,39194
1022153,-114851,-107270,39434,318087,166590,-113931,225864,-118981,-113984,67247,233446,39197
1022154,-114884,-107291,39460,317972,166537,-113933,225787,-118996,-113986,67179,233432,39227
1022155,-114907,-107336,39448,317938,166478,-113945,225748,-119006,-113999,67127,233408,39211
1022156,-114930,-107374,39394,317896,166454,-113948,225695,-119016,-113999,67121,233330,39160
1022157,-114962,-107375,39384,317931,166423,-113955,225667,-119046,-114007,67109,233189,39150
1022158,-114982,-107381,39356,317934,166404,-114000,225684,-119063,-114052,67077,233088,39121
1022159,-114988,-107398,39325,317972,166394,-114017,225647,-119084,-114069,66987,233126,39092
1022160,-115016,-107413,39317,317925,166342,-114031,225644,-119071,-114083,67016,233233,39082
1022161,-115028,-107420,39330,317834,166326,-114002,225666,-119036,-114055,67089,233264,39095
1022162,-115024,-107399,39324,317864,166323,-113998,225654,-119001,-114048,67096,233266,39091
1022163,-114977,-107384,39339,317828,166330,-113976,225676,-118989,-114030,67151,233318,39107
1022164,-114963,-107367,39312,317781,166391,-113948,225734,-118973,-113999,67231,233349,39078
1022165,-114954,-107361,39321,317848,166532,-113961,225809,-118986,-114012,67226,233276,39085
1022166,-114915,-107334,39343,317952,166594,-113970,225849,-118994,-114023,67232,233305,39109
1022167,-114893,-107324,39404,318045,166616,-113948,225830,-118958,-113997,67232,233321,39170
1022168,-114851,-107277,39429,318087,166643,-113930,225786,-118923,-113981,67227,233333,39194
1022169,-114833,-107259,39457,318163,166712,-113913,225790,-118924,-113963,67223,233312,39222
1022170,-114870,-107265,39469,318177,166685,-113899,225817,-118944,-113953,67245,233383,39235
1022171,-114899,-107306,39485,318130,166650,-113887,225757,-118966,-113943,67232,233563,39251
1022172,-114930,-107331,39422,318084,166608,-113903,225735,-119001,-113956,67206,233607,39186
1022173,-114980,-107356,39416,318005,166571,-113920,225766,-119019,-113976,67129,233501,39181
1022174,-115028,-107373,39377,317953,166541,-113944,225859,-119041,-113996,67084,233293,39142
1022175,-115068,-107396,39333,317915,166520,-113958,225843,-119053,-114008,67055,233210,39101
1022176,-115080,-107402,39267,317825,166400,-113995,225764,-119074,-114046,67002,233372,39033
1022177,-115061,-107418,39252,317655,166291,-114004,225719,-119043,-114056,67020,233381,39017
1022178,-115056,-107408,39240,317622,166225,-113998,225676,-119043,-114048,67046,233292,39005
1022179,-115065,-107406,39283,317688,166174,-114014,225651,-119057,-114068,66969,233215,39048
1022180,-115053,-107401,39286,317790,166186,-114037,225638,-119065,-114089,66922,233131,39054
1022181,-115036,-107405,39284,317832,166211,-114065,225668,-119047,-114119,66907,233138,39053
1022182,-115035,-107418,39301,317784,166234,-114026,225674,-119033,-114077,66997,233175,39067
1022183,-115026,-107412,39290,317767,166307,-113989,225684,-119028,-114042,67063,233212,39054
1022184,-115008,-107411,39275,317798,166317,-113967,225695,-119025,-114018,67099,233308,39042
1022185,-114986,-107388,39289,317881,166281,-113975,225747,-119022,-114027,67119,233298,39056
1022186,-114983,-107389,39317,317868,166382,-113927,225829,-119000,-113980,67180,233289,39082
1022187,-114952,-107390,39345,317840,166530,-113924,225836,-118997,-113977,67174,233452,39111
1022188,-114931,-107370,39387,317910,166597,-113937,225853,-119017,-113987,67128,233567,39155
1022189,-114901,-107355,39430,317989,166670,-113927,225844,-118987,-113979,67152,233477,39195
1022190,-114852,-107337,39429,318005,166657,-113922,225804,-118986,-113976,67151,233439,39191
1022191,-114848,-107331,39402,318011,166615,-113905,225747,-118963,-113956,67165,233431,39170
1022192,-114899,-107374,39370,317965,166587,-113931,225772,-118986,-113981,67183,233390,39137
1022193,-114965,-107406,39324,317887,166603,-113968,225769,-119026,-114020,67183,233316,39091
1022194,-115005,-107419,39316,317830,166616,-113977,225774,-119044,-114032,67072,233158,39079
1022195,-115051,-107423,39316,317808,166530,-113983,225771,-119038,-114034,67043,233076,39081
1022196,-115084,-107445,39297,317815,166418,-114035,225735,-119065,-114091,67007,233087,39058
1022197,-115075,-107457,39277,317817,166306,-114079,225700,-119078,-114133,66995,233092,39041
1022198,-115068,-107464,39239,317794,166319,-114080,225639,-119075,-114135,66962,233082,39007
1022199,-115093,-107470,39201,317721,166349,-114064,225624,-119065,-114119,66984,233042,38964
1022200,-115086,-107474,39210,317726,166294,-114018,225639,-119047,-114070,66995,232977,38975
1022201,-115091,-107458,39212,317759,166227,-113974,225609,-119026,-114028,67003,233004,38976
1022202,-115095,-107452,39214,317792,166172,-113934,225585,-119017,-113985,67032,233086,38977
1022203,-115097,-107456,39238,317754,166162,-113918,225660,-118999,-113972,67056,233213,39004
1022204,-115063,-107442,39235,317714,166229,-113899,225692,-118970,-113950,67079,233295,39001
1022205,-115021,-107459,39219,317703,166321,-113857,225721,-118984,-113911,67020,233395,38985
1022206,-114973,-107438,39225,317685,166412,-113832,225792,-118944,-113885,67060,233371,38992
1022207,-114934,-107404,39243,317736,166482,-113818,225859,-118926,-113869,67121,233315,39008
1022208,-114902,-107368,39274,317825,166525,-113841,225892,-118931,-113894,67144,233328,39038
1022209,-114904,-107372,39277,317841,166538,-113831,225902,-118922,-113884,67197,233426,39039
1022210,-114910,-107381,39263,317835,166475,-113830,225926,-118913,-113883,67263,233526,39029
1022211,-114957,-107375,39255,317870,166442,-113855,225911,-118941,-113908,67241,233566,39021
1022212,-114991,-107395,39229,317845,166389,-113843,225862,-118929,-113893,67234,233566,38997
1022213,-115005,-107419,39221,317781,166363,-113855,225796,-118943,-113911,67226,233458,38986
1022214,-115062,-107430,39229,317763,166410,-113878,225753,-118972,-113933,67217,233250,38993
1022215,-115105,-107454,39203,317788,166404,-113888,225707,-118998,-113942,67167,233183,38968
1022216,-115140,-107477,39188,317701,166411,-113920,225673,-119035,-113973,67120,233190,38952
1022217,-115122,-107496,39179,317689,166384,-113921,225656,-119036,-113975,67083,233104,38942
1022218,-115124,-107501,39155,317698,166384,-113946,225645,-119044,-113996,67058,233038,38921
1022219,-115135,-107496,39162,317733,166331,-113961,225629,-119079,-114014,67056,232968,38926
1022220,-115142,-107484,39166,317748,166292,-113971,225620,-119087,-114025,67027,233005,38930
1022221,-115101,-107478,39160,317737,166238,-113956,225576,-119068,-114009,67085,233091,38927
1022222,-115076,-107476,39156,317625,166164,-113946,225557,-119059,-113999,67123,233327,38921
1022223,-115039,-107454,39159,317550,166092,-113918,225625,-119031,-113971,67142,233444,38925
1022224,-115000,-107410,39159,317615,166063,-113890,225656,-118996,-113944,67182,233426,38923
1022225,-114992,-107410,39133,317689,166221,-113898,225655,-118978,-113953,67178,233450,38896
1022226,-114973,-107397,39173,317779,166434,-113920,225712,-118988,-113973,67138,233431,38938
1022227,-114913,-107373,39244,317911,166393,-113904,225805,-118972,-113958,67144,233346,39010
1022228,-114899,-107356,39247,318018,166399,-113900,225840,-118960,-113952,67195,233325,39014
1022229,-114908,-107343,39244,317982,166581,-113903,225841,-118950,-113955,67181,233392,39012
1022230,-114929,-107325,39260,317981,166695,-113908,225831,-118964,-113962,67128,233388,39026
1022231,-114958,-107328,39275,318011,166607,-113916,225859,-118995,-113970,67147,233386,39042
1022232,-114986,-107347,39269,318014,166513,-113933,225871,-119023,-113989,67173,233335,39035
1022233,-115016,-107384,39297,318030,166545,-113980,225780,-119076,-114034,67113,233240,39062
1022234,-115045,-107389,39303,318046,166507,-114049,225621,-119072,-114102,67104,233164,39069
1022235,-115064,-107401,39312,318062,166377,-114061,225572,-119074,-114115,67083,233149,39077
1022236,-115098,-107449,39267,317994,166283,-114064,225601,-119088,-114119,67056,233169,39032
1022237,-115149,-107477,39204,317888,166314,-114072,225613,-119106,-114126,67024,233148,38969
1022238,-115132,-107468,39169,317828,166316,-114058,225551,-119110,-114113,66999,233114,38933
1022239,-115121,-107470,39172,317713,166342,-114055,225522,-119106,-114111,66968,233093,38936
1022240,-115107,-107482,39144,317702,166366,-114045,225571,-119143,-114097,66959,233074,38912
1022241,-115129,-107457,39154,317741,166400,-114041,225647,-119162,-114094,66935,233023,38920
1022242,-115116,-107441,39186,317783,166432,-114055,225676,-119142,-114111,66946,232982,38954
1022243,-115098,-107421,39211,317755,166373,-114023,225732,-119108,-114076,67033,233027,38976
1022244,-115140,-107420,39213,317715,166460,-114019,225780,-119098,-114072,67100,233175,38978
1022245,-115169,-107429,39183,317756,166555,-113981,225785,-119090,-114033,67083,233322,38949
1022246,-115124,-107428,39211,317858,166653,-113977,225777,-119080,-114032,67127,233355,38975
1022247,-115064,-107414,39250,317860,166623,-113941,225788,-119039,-113995,67201,233412,39015
1022248,-115031,-107389,39285,317899,166581,-113916,225839,-119005,-113969,67189,233467,39048
1022249,-115008,-107368,39346,317956,166624,-113927,225868,-119017,-113980,67167,233497,39111
1022250,-114962,-107334,39396,318011,166645,-113961,225872,-119024,-114014,67166,233415,39160
1022251,-114938,-107325,39395,318077,166510,-114014,225882,-119027,-114067,67161,233380,39158
1022252,-114919,-107301,39414,318093,166395,-114054,225824,-119049,-114110,67139,233355,39179
1022253,-114950,-107311,39420,318080,166396,-114089,225747,-119130,-114141,67070,233323,39187
1022254,-115023,-107340,39407,318011,166438,-114128,225719,-119181,-114181,66959,233302,39175
1022255,-115036,-107337,39377,317948,166342,-114130,225721,-119161,-114184,66937,233245,39141
1022256,-115034,-107345,39361,317946,166196,-114118,225710,-119144,-114170,66910,233075,39128
1022257,-115049,-107348,39334,317899,166116,-114190,225681,-119121,-114243,66927,233061,39100
1022258,-115110,-107378,39298,317866,166076,-114220,225675,-119127,-114274,66935,233186,39065
1022259,-115143,-107402,39275,317790,166095,-114243,225641,-119153,-114296,66949,233299,39039
1022260,-115122,-107417,39269,317734,166287,-114222,225635,-119165,-114275,66984,233133,39034
1022261,-115116,-107399,39269,317710,166468,-114167,225645,-119159,-114221,67021,232940,39034
1022262,-115106,-107378,39278,317829,166564,-114132,225595,-119221,-114188,67007,232949,39041
1022263,-115081,-107361,39314,317927,166589,-114079,225546,-119254,-114133,66991,233029,39075
1022264,-115038,-107350,39329,317989,166577,-114054,225558,-119259,-114107,66951,233145,39096
1022265,-115014,-107343,39338,317993,166678,-114033,225581,-119271,-114085,66919,233269,39103
1022266,-114978,-107328,39380,317961,166742,-114017,225580,-119249,-114071,66992,233357,39145
1022267,-114956,-107307,39396,317984,166751,-114008,225582,-119217,-114060,67083,233425,39160
1022268,-114934,-107278,39433,317994,166755,-114020,225657,-119214,-114077,67133,233432,39196
1022269,-114910,-107243,39463,318044,166764,-113998,225738,-119162,-114053,67150,233320,39227
1022270,-114903,-107213,39467,318137,166732,-113993,225766,-119127,-114050,67164,233233,39232
1022271,-114910,-107232,39437,318138,166733,-114022,225699,-119131,-114074,67079,233350,39201
1022272,-114906,-107238,39447,318126,166749,-114058,225541,-119137,-114115,67012,233399,39209
1022273,-114941,-107269,39418,318098,166674,-114099,225483,-119172,-114152,67022,233366,39183
1022274,-115017,-107311,39386,318042,166506,-114126,225493,-119172,-114181,67080,233403,39149
1022275,-115038,-107324,39375,318026,166453,-114151,225488,-119183,-114204,67036,233328,39138
1022276,-115039,-107328,39345,318012,166548,-114173,225544,-119237,-114227,66885,233160,39109
1022277,-115051,-107350,39318,317998,166541,-114182,225614,-119253,-114237,66849,232964,39082
1022278,-115052,-107352,39308,318018,166476,-114185,225664,-119283,-114237,66830,232908,39070
1022279,-115063,-107375,39290,317988,166338,-114174,225638,-119290,-114229,66873,232978,39058
1022280,-115068,-107377,39256,317913,166292,-114130,225619,-119266,-114182,66937,233053,39022
1022281,-115081,-107374,39222,317922,166409,-114142,225592,-119283,-114195,66962,233098,38987
1022282,-115071,-107358,39194,317958,166540,-114161,225563,-119296,-114218,66962,233176,38957
1022283,-115072,-107355,39212,318014,166576,-114166,225589,-119298,-114220,66952,233244,38976
1022284,-115040,-107326,39266,318032,166469,-114123,225667,-119248,-114176,66984,233244,39030
1022285,-115007,-107312,39301,317999,166412,-114066,225717,-119219,-114120,67058,233253,39063
1022286,-114979,-107281,39321,317985,166463,-114022,225766,-119171,-114074,67133,233263,39085
1022287,-114962,-107248,39327,317980,166487,-114002,225859,-119131,-114055,67181,233304,39094
1022288,-114920,-107228,39365,318040,166502,-114005,225936,-119123,-114059,67137,233328,39130
1022289,-114861,-107199,39417,318121,166455,-114014,225928,-119103,-114066,67102,233386,39184
1022290,-114837,-107180,39485,318160,166341,-114030,225842,-119097,-114083,67130,233413,39253
1022291,-114827,-107174,39534,318126,166233,-114018,225811,-119063,-114074,67186,233275,39299
1022292,-114817,-107193,39514,317927,166217,-113989,225865,-119047,-114043,67198,233118,39277
1022293,-114848,-107224,39453,317878,166235,-113963,225862,-119082,-114018,67188,232934,39218
1022294,-114933,-107279,39400,317813,166305,-113974,225784,-119102,-114029,67121,232979,39167
1022295,-115000,-107312,39327,317816,166425,-114038,225703,-119158,-114090,67005,233122,39091
1022296,-115066,-107336,39279,317831,166427,-114105,225679,-119199,-114161,66935,233245,39045
1022297,-115101,-107340,39258,317818,166395,-114166,225641,-119212,-114217,66913,233284,39025
1022298,-115109,-107342,39273,317812,166322,-114244,225605,-119213,-114295,66879,233339,39036
1022299,-115089,-107335,39259,317751,166320,-114284,225641,-119235,-114334,66851,233250,39026
1022300,-115097,-107344,39257,317692,166370,-114307,225658,-119244,-114358,66957,233194,39022
1022301,-115079,-107339,39250,317783,166329,-114271,225639,-119240,-114324,66980,233149,39016
1022302,-115060,-107346,39241,317883,166376,-114218,225620,-119252,-114271,66977,233150,39009
1022303,-115047,-107334,39235,317920,166565,-114167,225615,-119243,-114220,66936,233099,39001
1022304,-115013,-107321,39256,317821,166572,-114095,225664,-119259,-114148,66986,233194,39021
1022305,-114973,-107296,39263,317764,166535,-114068,225696,-119245,-114123,67011,233325,39026
1022306,-114943,-107285,39255,317824,166531,-114055,225763,-119210,-114109,67004,233427,39020
1022307,-114935,-107280,39240,317910,166607,-114054,225825,-119166,-114113,67046,233387,39005
1022308,-114905,-107284,39258,317980,166633,-114048,225843,-119140,-114101,67064,233416,39023
1022309,-114877,-107276,39298,318013,166607,-114033,225867,-119094,-114089,67038,233482,39059
1022310,-114875,-107263,39318,318046,166503,-114009,225905,-119056,-114063,67005,233496,39086
1022311,-114904,-107288,39288,318021,166409,-113993,225888,-119065,-114048,67042,233538,39052
1022312,-114940,-107311,39241,317991,166360,-114011,225865,-119075,-114065,67076,233547,39007
1022313,-114971,-107337,39197,317980,166362,-114021,225807,-119118,-114073,67055,233477,38960
1022314,-114985,-107362,39154,317921,166428,-114042,225756,-119144,-114092,67007,233370,38921
1022315,-115017,-107374,39124,317845,166407,-114049,225739,-119175,-114102,66998,233309,38888
1022316,-115024,-107395,39103,317850,166256,-114087,225731,-119183,-114138,66989,233157,38868
1022317,-115036,-107395,39092,317884,166175,-114104,225698,-119205,-114157,67006,233042,38856
1022318,-115059,-107396,39079,317803,166190,-114107,225704,-119223,-114159,66981,233005,38843
1022319,-115070,-107409,39098,317739,166144,-114097,225691,-119214,-114152,66945,232970,38863
1022320,-115126,-107418,39078,317730,166171,-114101,225654,-119214,-114154,66963,233007,38844
1022321,-115131,-107430,39085,317719,166341,-114073,225579,-119205,-114126,66974,233056,38849
1022322,-115139,-107422,39098,317736,166420,-114051,225505,-119170,-114106,67030,233060,38863
1022323,-115078,-107408,39127,317733,166435,-114012,225603,-119120,-114069,67110,232870,38892
1022324,-115027,-107375,39162,317786,166440,-114047,225712,-119118,-114102,67171,232750,38927
1022325,-115022,-107384,39174,317823,166568,-114064,225749,-119144,-114117,67103,232866,38938
1022326,-114971,-107352,39209,317907,166717,-114061,225715,-119136,-114117,66995,232953,38974
1022327,-114920,-107321,39221,317943,166793,-114057,225706,-119134,-114109,66949,233100,38987
1022328,-114859,-107308,39189,317968,166811,-114009,225750,-119090,-114063,66947,233057,38950
1022329,-114820,-107280,39156,318014,166848,-113987,225780,-119063,-114040,66983,233004,38920
1022330,-114820,-107287,39105,318015,166809,-114011,225757,-119069,-114066,66987,233163,38869
1022331,-114862,-107293,39080,317969,166704,-114062,225703,-119090,-114116,66999,233419,38845
1022332,-114895,-107334,39079,317897,166503,-114079,225740,-119083,-114133,67056,233469,38844
1022333,-114947,-107386,39100,317792,166340,-114063,225769,-119074,-114117,67065,233421,38862
1022334,-114997,-107412,39110,317733,166198,-114068,225742,-119102,-114122,67067,233356,38872
1022335,-115035,-107432,39089,317686,166155,-114074,225745,-119144,-114126,67089,233280,38856
1022336,-115092,-107450,39067,317621,166104,-114079,225716,-119199,-114132,67075,233280,38835
1022337,-115140,-107466,39045,317657,166127,-114112,225667,-119249,-114166,66975,233307,38809
1022338,-115149,-107486,39025,317657,166073,-114133,225629,-119268,-114187,66935,233318,38787
1022339,-115169,-107480,39014,317660,165981,-114128,225624,-119293,-114181,66929,233350,38777
1022340,-115157,-107471,39007,317650,166006,-114134,225637,-119279,-114185,66886,233323,38772
1022341,-115152,-107461,39032,317614,166089,-114119,225694,-119273,-114170,66906,233246,38799
1022342,-115103,-107437,39086,317623,166134,-114086,225745,-119224,-114138,66945,233022,38853
1022343,-115073,-107415,39091,317652,166188,-114077,225777,-119192,-114131,66971,232993,38858
1022344,-115054,-107401,39085,317745,166239,-114092,225762,-119180,-114145,66908,233151,38849
1022345,-115004,-107381,39089,317834,166315,-114120,225750,-119168,-114175,66863,233195,38854
1022346,-114955,-107356,39142,317896,166356,-114085,225774,-119129,-114138,66917,233138,38904
1022347,-114933,-107333,39165,317885,166405,-114033,225849,-119097,-114089,66992,233118,38928
1022348,-114934,-107318,39200,317875,166334,-113988,225904,-119065,-114042,67099,233159,38965
1022349,-114922,-107300,39204,317881,166337,-113965,225924,-119065,-114017,67170,233219,38971
1022350,-114916,-107290,39224,317880,166305,-113964,225952,-119062,-114016,67167,233238,38992
1022351,-114907,-107281,39250,317870,166344,-114013,225951,-119096,-114066,67141,233238,39016
1022352,-114929,-107296,39217,317869,166219,-114015,225952,-119099,-114071,67151,233187,38982
1022353,-114980,-107353,39160,317849,166247,-114043,225884,-119118,-114095,67083,233185,38927
1022354,-115036,-107405,39131,317820,166362,-114119,225810,-119170,-114172,67009,233262,38897
1022355,-115062,-107436,39121,317847,166389,-114209,225718,-119184,-114261,66967,233234,38886
1022356,-115084,-107446,39128,317880,166425,-114226,225593,-119194,-114277,66932,233110,38893
1022357,-115121,-107461,39119,317856,166435,-114232,225481,-119215,-114288,66918,233109,38882
1022358,-115155,-107476,39076,317849,166440,-114215,225454,-119255,-114271,66873,233162,38841
1022359,-115187,-107489,39054,317841,166338,-114204,225454,-119245,-114256,66857,233186,38819
1022360,-115178,-107493,39054,317732,166315,-114166,225492,-119237,-114219,66899,233142,38816
1022361,-115171,-107476,39086,317735,166366,-114128,225526,-119255,-114182,66903,233104,38849
1022362,-115145,-107452,39166,317863,166319,-114130,225577,-119243,-114184,66886,233039,38933
1022363,-115152,-107442,39184,317996,166305,-114144,225603,-119244,-114195,66891,233145,38948
1022364,-115133,-107421,39216,318058,166295,-114132,225577,-119224,-114187,66972,233191,38979
1022365,-115075,-107401,39218,317966,166284,-114080,225654,-119182,-114134,67054,233174,38986
1022366,-115036,-107378,39238,317966,166413,-114042,225719,-119171,-114094,67088,233149,39006
1022367,-115016,-107353,39281,317973,166511,-114021,225716,-119194,-114071,67107,233311,39049
1022368,-114979,-107336,39319,318060,166560,-114022,225705,-119205,-114074,67077,233427,39083
1022369,-114957,-107326,39377,318155,166646,-113952,225647,-119163,-114006,67082,233260,39140
1022370,-114952,-107322,39374,318173,166714,-113943,225638,-119147,-113997,67135,233182,39139
1022371,-114960,-107333,39365,318137,166776,-114015,225669,-119174,-114067,67102,233195,39130
1022372,-114983,-107329,39370,318124,166736,-114063,225687,-119175,-114114,66998,233179,39137
1022373,-115022,-107349,39318,318065,166649,-114122,225685,-119172,-114176,67002,233160,39085
1022374,-115047,-107373,39280,317980,166610,-114204,225693,-119200,-114260,66893,233243,39047
1022375,-115078,-107398,39265,317927,166494,-114213,225686,-119212,-114265,66879,233259,39030
1022376,-115082,-107431,39227,317884,166339,-114166,225605,-119215,-114220,66908,233195,38986
1022377,-115100,-107448,39154,317813,166305,-114135,225541,-119214,-114184,66941,233145,38920
1022378,-115157,-107461,39136,317681,166310,-114072,225559,-119226,-114123,66994,233026,38906
1022379,-115184,-107455,39122,317636,166324,-114089,225582,-119255,-114143,66980,233020,38885
1022380,-115183,-107454,39157,317641,166301,-114098,225563,-119261,-114149,66923,233057,38921
1022381,-115184,-107471,39176,317647,166276,-114083,225611,-119239,-114138,66902,233135,38940
1022382,-115160,-107452,39162,317676,166300,-114052,225607,-119210,-114105,66919,233165,38926
1022383,-115097,-107423,39166,317723,166301,-114045,225622,-119190,-114097,66956,233126,38930
1022384,-115072,-107406,39195,317823,166260,-114060,225684,-119163,-114114,66989,233168,38962
1022385,-115076,-107406,39225,317913,166286,-114088,225734,-119155,-114142,67027,233181,38992
1022386,-115088,-107388,39268,317980,166382,-114089,225771,-119146,-114142,67055,233242,39033
1022387,-115099,-107376,39299,318015,166520,-114085,225816,-119133,-114138,67076,233295,39061
1022388,-115072,-107365,39323,318035,166577,-114061,225909,-119127,-114113,67067,233321,39088
1022389,-115019,-107360,39328,318077,166578,-114034,225933,-119140,-114085,67080,233420,39094
1022390,-115026,-107367,39333,318095,166616,-114000,225884,-119144,-114053,67094,233481,39099
1022391,-115045,-107364,39328,318028,166594,-113946,225872,-119121,-113999,67136,233427,39092
1022392,-115027,-107394,39309,317974,166511,-113974,225859,-119126,-114030,67170,233404,39075
1022393,-115015,-107412,39297,317956,166373,-114013,225829,-119171,-114066,67144,233357,39064
1022394,-115028,-107414,39293,317935,166267,-114048,225759,-119205,-114101,67096,233365,39060
1022395,-115052,-107427,39263,317882,166235,-114070,225698,-119224,-114125,67103,233326,39024
1022396,-115080,-107439,39251,317802,166235,-114064,225670,-119221,-114117,67093,233175,39017
1022397,-115115,-107451,39207,317763,166234,-114088,225654,-119240,-114138,67059,233142,38971
1022398,-115135,-107480,39197,317781,166238,-114130,225615,-119279,-114182,66964,233199,38965
1022399,-115160,-107477,39203,317744,166246,-114123,225611,-119295,-114175,66982,233168,38970
1022400,-115177,-107480,39208,317732,166179,-114101,225613,-119282,-114153,67003,233167,38976
1022401,-115166,-107443,39235,317806,166186,-114074,225600,-119240,-114127,66952,233153,39001
1022402,-115141,-107430,39249,317851,166305,-114048,225578,-119215,-114102,66915,233125,39015
1022403,-115140,-107440,39253,317901,166462,-114065,225541,-119202,-114117,66934,233212,39016
1022404,-115116,-107444,39238,317918,166513,-114083,225613,-119189,-114136,66952,233299,39004
1022405,-115073,-107416,39237,318010,166527,-114076,225660,-119219,-114130,66958,233289,39002
1022406,-115001,-107383,39249,318077,166510,-114024,225742,-119184,-114076,67040,233197,39015
1022407,-114940,-107377,39256,318097,166493,-113973,225801,-119169,-114022,67092,233226,39022
1022408,-114882,-107355,39289,318107,166434,-113932,225819,-119147,-113988,67095,233326,39055
1022409,-114855,-107344,39322,318136,166315,-113895,225878,-119106,-113948,67127,233358,39089
1022410,-114859,-107359,39309,318167,166292,-113879,225958,-119080,-113934,67176,233302,39072
1022411,-114927,-107405,39295,318064,166373,-113881,225965,-119065,-113937,67207,233371,39060
1022412,-114981,-107421,39271,317963,166503,-113948,225912,-119083,-113999,67165,233442,39038
1022413,-115025,-107450,39213,317863,166595,-113989,225812,-119112,-114042,67132,233454,38980
1022414,-115082,-107476,39171,317801,166612,-114007,225764,-119134,-114061,67040,233457,38936
1022415,-115087,-107467,39179,317849,166577,-114042,225654,-119150,-114094,67009,233359,38947
1022416,-115129,-107480,39171,317872,166582,-114077,225592,-119185,-114128,66992,233249,38937
1022417,-115126,-107491,39169,317820,166557,-114101,225619,-119198,-114155,66946,233144,38936
1022418,-115112,-107494,39159,317800,166500,-114099,225650,-119218,-114153,66920,233076,38927
1022419,-115150,-107490,39138,317841,166429,-114088,225617,-119220,-114142,66905,233046,38905
1022420,-115129,-107494,39101,317863,166363,-114086,225625,-119213,-114141,66913,233051,38868
1022421,-115124,-107489,39087,317896,166413,-114068,225627,-119211,-114122,66931,233052,38852
1022422,-115130,-107503,39051,317868,166473,-114027,225659,-119210,-114079,66946,233093,38817
1022423,-115132,-107496,39086,317866,166509,-114032,225687,-119190,-114086,67031,233172,38850
1022424,-115128,-107471,39119,317875,166555,-114042,225725,-119161,-114094,67065,233225,38886
1022425,-115087,-107439,39188,317891,166609,-114062,225768,-119163,-114115,67093,233200,38953
1022426,-115039,-107402,39270,317952,166612,-114045,225809,-119138,-114102,67126,233198,39033
1022427,-115007,-107381,39317,317947,166500,-113992,225861,-119135,-114046,67192,233336,39080
1022428,-114976,-107362,39330,317943,166380,-113945,225918,-119112,-113996,67244,233430,39097
1022429,-114921,-107354,39342,317984,166440,-113886,225945,-119085,-113937,67237,233337,39106
1022430,-114880,-107330,39367,318028,166506,-113859,225945,-119082,-113912,67244,233145,39133
1022431,-114903,-107318,39385,318076,166536,-113890,225912,-119099,-113941,67215,233075,39153
1022432,-114939,-107344,39383,318102,166607,-113947,225828,-119138,-114002,67133,233116,39147
1022433,-115003,-107355,39415,318123,166631,-113996,225700,-119196,-114049,67063,233124,39180
1022434,-115051,-107405,39309,318092,166522,-114014,225610,-119211,-114068,67101,233224,39073
1022435,-115054,-107431,39193,318072,166453,-114025,225592,-119232,-114080,67078,233251,38956
1022436,-115055,-107419,39166,318011,166394,-114047,225573,-119242,-114097,66998,233214,38930
1022437,-115048,-107408,39181,317864,166414,-114052,225503,-119246,-114105,67002,233104,38944
1022438,-115069,-107414,39197,317816,166456,-114077,225441,-119259,-114132,66995,233048,38964
1022439,-115102,-107430,39215,317742,166350,-114052,225403,-119246,-114104,66948,233165,38980
1022440,-115114,-107426,39262,317792,166288,-114066,225315,-119246,-114114,66934,233216,39028
1022441,-115115,-107423,39271,317912,166282,-114070,225327,-119245,-114124,66927,233209,39038
1022442,-115100,-107423,39246,317950,166329,-114061,225406,-119231,-114116,66928,233200,39011
1022443,-115097,-107417,39215,317944,166356,-114077,225514,-119236,-114132,66952,233287,38983
1022444,-115069,-107392,39237,318005,166342,-114046,225539,-119215,-114098,66976,233356,39004
1022445,-115040,-107368,39284,318041,166375,-114024,225480,-119159,-114076,67003,233374,39053
1022446,-115003,-107362,39325,318039,166461,-114000,225512,-119113,-114052,67033,233365,39092
1022447,-114994,-107347,39353,318070,166465,-113996,225663,-119090,-114048,67063,233401,39122
1022448,-114976,-107349,39374,318062,166506,-113987,225782,-119083,-114036,67048,233496,39142
1022449,-114941,-107342,39386,317958,166555,-113995,225874,-119075,-114046,67065,233534,39153
1022450,-114920,-107333,39411,317962,166551,-113996,225923,-119072,-114049,67098,233454,39176
1022451,-114920,-107328,39415,317954,166516,-113996,225968,-119079,-114048,67115,233330,39181
1022452,-114936,-107342,39368,317965,166508,-113993,225991,-119125,-114045,67065,233269,39135
1022453,-114964,-107337,39328,318012,166482,-114007,225905,-119156,-114061,67002,233140,39095
1022454,-114998,-107381,39271,318002,166469,-114082,225784,-119181,-114136,67031,233195,39037
1022455,-115019,-107412,39213,317952,166453,-114116,225710,-119190,-114172,67074,233193,38979
1022456,-115035,-107432,39170,317930,166365,-114139,225691,-119175,-114192,67096,233065,38933
1022457,-115097,-107471,39151,317928,166296,-114144,225669,-119170,-114195,67096,233041,38917
1022458,-115134,-107474,39110,317922,166153,-114116,225652,-119134,-114167,67077,233064,38876
1022459,-115149,-107499,39112,317878,166148,-114102,225660,-119149,-114158,67013,233054,38877
1022460,-115144,-107504,39122,317830,166310,-114115,225647,-119175,-114172,67005,233038,38887
1022461,-115137,-107491,39169,317826,166409,-114102,225615,-119203,-114154,66968,233074,38936
1022462,-115113,-107475,39223,317840,166475,-114082,225628,-119215,-114138,66937,233075,38988
1022463,-115103,-107453,39262,317895,166472,-114026,225618,-119181,-114081,66978,233116,39030
1022464,-115097,-107445,39290,318029,166438,-114009,225574,-119162,-114062,67038,233224,39056
1022465,-115088,-107417,39259,318061,166454,-114020,225623,-119137,-114067,67059,233241,39029
1022466,-115017,-107398,39268,318058,166421,-113967,225700,-119099,-114021,67105,233274,39033
1022467,-114950,-107372,39256,318017,166361,-113956,225809,-119071,-114007,67124,233407,39021
1022468,-114926,-107362,39253,318017,166495,-113963,225848,-119073,-114014,67093,233547,39023
1022469,-114918,-107365,39267,317980,166660,-114004,225863,-119062,-114057,67127,233592,39035
1022470,-114913,-107344,39336,318034,166722,-114055,225850,-119076,-114111,67142,233520,39101
1022471,-114933,-107336,39372,318046,166727,-114076,225813,-119070,-114126,67175,233427,39138
1022472,-114965,-107337,39382,318041,166686,-114076,225762,-119102,-114129,67198,233362,39147
1022473,-114992,-107372,39353,318037,166597,-114050,225697,-119125,-114102,67133,233340,39116
1022474,-115022,-107391,39383,318077,166591,-114024,225659,-119162,-114074,67093,233070,39149
1022475,-115014,-107394,39383,318092,166492,-114014,225595,-119173,-114066,67072,232895,39147
1022476,-115033,-107413,39353,318094,166403,-114038,225511,-119209,-114091,66988,232966,39117
1022477,-115049,-107412,39298,318067,166316,-114062,225450,-119220,-114115,66924,233072,39063
1022478,-115106,-107451,39241,317948,166366,-114080,225433,-119204,-114135,66975,233079,39008
1022479,-115115,-107460,39241,317919,166388,-114119,225421,-119220,-114173,66966,233054,39003
1022480,-115122,-107440,39243,317940,166350,-114098,225413,-119226,-114150,66984,232990,39007
1022481,-115096,-107424,39252,317935,166379,-114097,225409,-119210,-114151,66992,233045,39017
1022482,-115094,-107430,39270,317952,166472,-114060,225434,-119179,-114111,67045,232915,39032
1022483,-115073,-107394,39335,317997,166552,-114063,225448,-119161,-114115,67037,232871,39099
1022484,-115075,-107374,39378,318072,166628,-114057,225456,-119205,-114107,67003,232972,39143
1022485,-115110,-107360,39383,318096,166735,-114077,225467,-119214,-114129,66953,233173,39151
1022486,-115084,-107350,39398,318066,166788,-114101,225513,-119200,-114155,66967,233355,39163
1022487,-115024,-107335,39435,318062,166816,-114097,225535,-119197,-114152,67018,233513,39198
1022488,-114983,-107326,39456,318088,166810,-114078,225582,-119178,-114130,67083,233504,39219
1022489,-114951,-107324,39464,318123,166771,-114052,225654,-119127,-114103,67120,233550,39231
1022490,-114920,-107324,39446,318151,166673,-114041,225690,-119115,-114094,67144,233550,39211
1022491,-114908,-107318,39422,318194,166544,-114020,225728,-119087,-114076,67133,233473,39187
1022492,-114923,-107361,39370,318187,166464,-114015,225735,-119093,-114071,67129,233444,39135
1022493,-114953,-107384,39305,318138,166426,-114032,225718,-119107,-114083,67107,233340,39070
1022494,-114989,-107390,39292,318061,166345,-114043,225693,-119102,-114095,67105,233205,39060
1022495,-114948,-107378,39324,318042,166206,-114055,225539,-119112,-114107,67076,233151,39089
1022496,-114992,-107395,39340,317906,166122,-114055,225388,-119110,-114107,67110,233188,39107
1022497,-115028,-107413,39339,317773,166178,-114111,225350,-119140,-114164,67144,233234,39106
1022498,-115081,-107448,39318,317710,166314,-114161,225340,-119172,-114214,67126,233269,39084
1022499,-115078,-107456,39290,317756,166425,-114203,225320,-119189,-114255,67046,233163,39055
1022500,-115070,-107455,39246,317802,166506,-114191,225386,-119190,-114245,66983,233022,39009
1022501,-115060,-107451,39215,317850,166558,-114187,225468,-119194,-114239,66930,233042,38978
1022502,-115078,-107446,39198,317876,166642,-114204,225498,-119200,-114256,66922,233072,38965
1022503,-115073,-107417,39184,317939,166695,-114128,225492,-119175,-114183,66918,233091,38948
1022504,-115048,-107406,39211,318029,166656,-114077,225501,-119137,-114130,66977,233124,38977
1022505,-115028,-107393,39247,318074,166590,-114042,225539,-119131,-114094,67040,233153,39015
1022506,-114981,-107382,39318,318072,166558,-113996,225603,-119088,-114049,67151,233082,39081
1022507,-114955,-107367,39383,318115,166604,-113968,225614,-119074,-114020,67187,233104,39147
1022508,-114895,-107338,39439,318154,166641,-113970,225569,-119050,-114023,67104,233205,39204
1022509,-114857,-107318,39452,318134,166594,-113946,225590,-119025,-114000,67137,233280,39217
1022510,-114881,-107330,39451,318099,166537,-113949,225625,-119017,-114004,67216,233361,39218
1022511,-114894,-107325,39402,318065,166517,-113932,225598,-119011,-113984,67229,233355,39168
1022512,-114926,-107348,39351,318002,166463,-113964,225536,-118983,-114018,67211,233425,39116
1022513,-114976,-107373,39288,318012,166354,-114024,225527,-119028,-114076,67176,233470,39052
1022514,-115065,-107414,39227,317992,166302,-114115,225520,-119061,-114172,67146,233546,38993
1022515,-115107,-107434,39240,317993,166298,-114247,225526,-119089,-114299,67077,233597,39004
1022516,-115119,-107452,39266,317934,166293,-114281,225513,-119124,-114334,67041,233504,39032
1022517,-115118,-107451,39295,317890,166292,-114307,225536,-119138,-114361,67012,233314,39062
1022518,-115147,-107445,39299,317884,166327,-114270,225495,-119175,-114325,66981,233168,39065
1022519,-115160,-107434,39290,317932,166402,-114228,225392,-119215,-114282,66909,233023,39055
1022520,-115169,-107445,39261,317898,166438,-114163,225391,-119241,-114216,66926,232989,39026
1022521,-115184,-107462,39228,317885,166437,-114098,225410,-119239,-114151,66963,233071,38992
1022522,-115147,-107456,39256,317865,166416,-114104,225420,-119229,-114161,66922,233214,39024
1022523,-115083,-107427,39259,317879,166340,-114104,225507,-119203,-114159,66927,233250,39021
1022524,-115062,-107413,39261,317910,166332,-114080,225579,-119192,-114136,66989,233278,39026
1022525,-115029,-107395,39247,317919,166355,-114039,225645,-119156,-114090,66990,233244,39012
1022526,-114985,-107367,39303,317939,166301,-114017,225717,-119124,-114070,67027,233262,39071
1022527,-114961,-107351,39340,317956,166299,-113986,225751,-119096,-114038,67061,233291,39105
1022528,-114930,-107333,39377,317940,166339,-113984,225741,-119065,-114039,67106,233347,39143
1022529,-114919,-107346,39365,317892,166453,-113990,225736,-119060,-114043,67158,233445,39133
1022530,-114924,-107327,39355,317938,166431,-114013,225733,-119077,-114068,67180,233513,39120
1022531,-114932,-107311,39379,317981,166445,-114022,225714,-119115,-114073,67158,233404,39142
1022532,-114951,-107327,39381,318017,166416,-114038,225692,-119136,-114089,67147,233234,39148
1022533,-114995,-107365,39344,317896,166516,-114080,225626,-119163,-114135,67111,233194,39108
1022534,-115043,-107393,39331,317855,166588,-114125,225548,-119226,-114178,67066,233176,39094
1022535,-115049,-107415,39307,317871,166504,-114136,225493,-119217,-114188,67026,233117,39075
1022536,-115075,-107440,39271,317922,166369,-114154,225451,-119231,-114206,66969,233052,39035
1022537,-115119,-107485,39247,317927,166273,-114136,225442,-119230,-114194,66962,232995,39011
1022538,-115129,-107493,39222,317857,166207,-114123,225451,-119207,-114178,66992,232924,38987
1022539,-115141,-107497,39160,317834,166177,-114115,225431,-119205,-114167,66974,232904,38927
1022540,-115139,-107489,39135,317853,166220,-114129,225415,-119211,-114182,66964,232905,38898
1022541,-115135,-107490,39107,317887,166326,-114132,225382,-119210,-114188,66998,232901,38871
1022542,-115127,-107480,39114,317890,166385,-114130,225363,-119200,-114184,67011,232955,38880
1022543,-115085,-107461,39122,317818,166558,-114120,225402,-119183,-114173,66965,232967,38888
1022544,-115057,-107455,39151,317864,166558,-114111,225453,-119170,-114166,67001,232983,38915
1022545,-115076,-107454,39200,317887,166468,-114121,225459,-119165,-114175,67037,233195,38965
1022546,-115048,-107462,39226,317907,166468,-114119,225506,-119148,-114172,67036,233358,38991
1022547,-115032,-107461,39253,317925,166479,-114061,225596,-119102,-114116,67085,233362,39017
1022548,-115015,-107432,39287,317864,166575,-114013,225638,-119066,-114066,67099,233331,39051
1022549,-114991,-107401,39343,317845,166620,-113961,225663,-119062,-114014,67096,233332,39107
1022550,-114998,-107384,39352,317899,166621,-113959,225672,-119063,-114012,67088,233294,39118
1022551,-114997,-107399,39320,317928,166623,-113942,225672,-119072,-113999,67017,233301,39083
1022552,-115035,-107419,39287,317929,166553,-113983,225603,-119115,-114035,67003,233414,39052
1022553,-115051,-107447,39291,317966,166447,-114009,225514,-119141,-114065,66995,233384,39057
1022554,-115091,-107494,39251,317866,166357,-114003,225453,-119131,-114056,67034,233311,39015
1022555,-115095,-107501,39241,317805,166299,-114009,225362,-119122,-114064,67059,233216,39007
1022556,-115141,-107522,39218,317785,166287,-114049,225293,-119140,-114103,67013,233166,38983
1022557,-115152,-107534,39161,317779,166245,-114067,225259,-119177,-114123,66977,233170,38926
1022558,-115163,-107523,39141,317749,166139,-114044,225220,-119146,-114098,67009,233070,38908
1022559,-115172,-107529,39110,317676,166026,-114042,225252,-119147,-114095,67031,233035,38875
1022560,-115175,-107512,39120,317543,166098,-114038,225335,-119161,-114089,67031,232982,38886
1022561,-115191,-107508,39141,317506,166208,-114019,225387,-119138,-114070,67070,232938,38908
1022562,-115172,-107517,39177,317548,166270,-114048,225419,-119143,-114101,67092,232919,38941
1022563,-115159,-107504,39233,317706,166360,-114074,225446,-119153,-114125,67030,232859,38999
1022564,-115134,-107488,39274,317825,166462,-114089,225557,-119147,-114145,66989,232765,39038
1022565,-115091,-107479,39297,317910,166537,-114088,225576,-119146,-114143,66954,232718,39061
1022566,-115025,-107464,39339,317979,166586,-114063,225538,-119114,-114114,66941,232815,39106
1022567,-115008,-107457,39350,318039,166636,-114033,225498,-119115,-114085,66949,233078,39117
1022568,-115028,-107451,39328,317976,166614,-114018,225554,-119121,-114069,67024,233314,39097
1022569,-115060,-107447,39303,317918,166590,-114001,225652,-119116,-114057,67090,233490,39070
1022570,-115033,-107436,39299,317928,166561,-114010,225698,-119115,-114063,67065,233517,39065
1022571,-115016,-107425,39299,317922,166471,-114025,225675,-119112,-114079,67049,233534,39069
1022572,-115020,-107442,39256,317927,166396,-114040,225657,-119159,-114091,67060,233504,39023
1022573,-115055,-107470,39224,317902,166393,-114087,225629,-119187,-114139,67003,233443,38990
1022574,-115093,-107506,39189,317826,166381,-114107,225584,-119207,-114159,66969,233383,38957
1022575,-115101,-107516,39181,317764,166327,-114115,225558,-119253,-114164,66970,233344,38946
1022576,-115142,-107544,39179,317759,166255,-114141,225503,-119265,-114195,66941,233296,38943
1022577,-115181,-107567,39222,317770,166199,-114143,225451,-119276,-114197,66912,233252,38985
1022578,-115222,-107603,39215,317742,166223,-114145,225451,-119285,-114199,66902,233172,38979
1022579,-115226,-107602,39217,317755,166211,-114157,225423,-119280,-114207,66878,233117,38985
1022580,-115203,-107588,39203,317706,166209,-114141,225437,-119251,-114195,66894,233010,38968
1022581,-115166,-107564,39203,317662,166217,-114121,225478,-119212,-114172,66932,232914,38971
1022582,-115154,-107559,39216,317664,166235,-114135,225505,-119184,-114185,66984,232934,38985
1022583,-115122,-107561,39232,317719,166203,-114153,225544,-119183,-114201,66992,233087,38998
1022584,-115108,-107540,39208,317848,166150,-114139,225567,-119165,-114189,67027,233198,38975
1022585,-115112,-107526,39188,317899,166240,-114106,225574,-119181,-114155,67047,233259,38952
1022586,-115084,-107505,39174,317881,166380,-114077,225626,-119156,-114130,67051,233314,38940
1022587,-115053,-107468,39232,317925,166493,-114060,225646,-119143,-114110,67026,233370,39001
1022588,-115023,-107447,39340,317943,166484,-114029,225668,-119124,-114080,67034,233374,39107
1022589,-114989,-107444,39411,318015,166474,-113986,225694,-119091,-114039,67055,233261,39178
1022590,-114973,-107437,39456,318003,166432,-113970,225712,-119086,-114024,67086,233289,39221
1022591,-114984,-107433,39424,317982,166425,-113996,225716,-119101,-114052,67051,233414,39190
1022592,-114986,-107457,39394,317906,166422,-114043,225661,-119107,-114099,67098,233417,39157
1022593,-114994,-107440,39336,317853,166398,-114129,225594,-119096,-114181,67107,233333,39102
1022594,-115019,-107451,39296,317838,166336,-114161,225614,-119100,-114213,67051,233153,39061
1022595,-115080,-107465,39299,317868,166296,-114198,225629,-119115,-114249,67036,233062,39065
1022596,-115107,-107482,39315,317840,166321,-114244,225542,-119140,-114300,66999,233041,39081
1022597,-115126,-107517,39313,317807,166391,-114278,225495,-119186,-114330,66964,233016,39079
1022598,-115129,-107526,39341,317798,166346,-114270,225434,-119221,-114321,66871,233050,39104
1022599,-115124,-107489,39355,317763,166254,-114242,225375,-119254,-114296,66840,233055,39122
1022600,-115165,-107494,39396,317735,166122,-114202,225390,-119227,-114256,66879,233101,39160
1022601,-115152,-107480,39385,317841,166053,-114179,225482,-119243,-114234,66912,233045,39152
1022602,-115122,-107498,39319,317847,166187,-114158,225551,-119234,-114210,66939,233004,39088
1022603,-115060,-107489,39286,317831,166369,-114147,225539,-119221,-114200,66928,233021,39050
1022604,-115014,-107468,39325,317874,166418,-114107,225479,-119180,-114160,66937,233055,39093
1022605,-115010,-107462,39355,317956,166496,-114105,225431,-119147,-114160,66977,233097,39122
1022606,-115011,-107471,39395,318060,166608,-114151,225495,-119121,-114204,67028,233106,39162
1022607,-115003,-107455,39399,318138,166712,-114160,225561,-119116,-114216,67018,233136,39165
1022608,-114998,-107432,39416,318144,166856,-114117,225606,-119098,-114170,67037,233077,39179
1022609,-115016,-107416,39417,318151,166849,-114073,225648,-119086,-114126,67114,233125,39184
1022610,-115006,-107405,39432,318188,166773,-114109,225634,-119081,-114162,67155,233207,39197
1022611,-114993,-107394,39460,318219,166747,-114142,225623,-119094,-114195,67064,233204,39225
1022612,-115013,-107396,39458,318205,166708,-114151,225614,-119112,-114207,66984,233117,39222
1022613,-115040,-107425,39418,318084,166677,-114172,225636,-119133,-114225,66938,233166,39180
1022614,-115076,-107485,39356,318008,166564,-114178,225643,-119161,-114229,66947,233196,39122
1022615,-115121,-107498,39326,317976,166485,-114192,225616,-119170,-114244,66963,233149,39091
1022616,-115160,-107519,39299,317889,166398,-114178,225545,-119213,-114232,66922,233240,39063
1022617,-115161,-107542,39230,317773,166265,-114181,225573,-119206,-114235,66881,233312,38993
1022618,-115165,-107558,39185,317735,166195,-114198,225580,-119212,-114251,66891,233310,38949
1022619,-115183,-107581,39172,317637,166239,-114212,225558,-119217,-114262,66921,233299,38938
1022620,-115169,-107582,39163,317640,166237,-114206,225529,-119212,-114260,66994,233221,38928
1022621,-115130,-107536,39163,317671,166175,-114181,225482,-119182,-114231,67048,233159,38926
1022622,-115069,-107490,39176,317732,166057,-114151,225452,-119147,-114206,67085,233185,38943
1022623,-115034,-107458,39190,317794,165859,-114120,225486,-119132,-114174,67126,233292,38956
1022624,-115029,-107446,39227,317797,165851,-114110,225577,-119096,-114164,67096,233371,38996
1022625,-115025,-107451,39263,317819,165976,-114099,225651,-119083,-114156,67050,233367,39032
1022626,-115016,-107465,39304,317813,166252,-114096,225697,-119076,-114149,67086,233275,39069
1022627,-115015,-107443,39361,317905,166463,-114123,225753,-119084,-114176,67060,233227,39128
1022628,-115004,-107433,39429,318005,166644,-114165,225791,-119100,-114218,67011,233225,39195
1022629,-114964,-107415,39465,318053,166820,-114154,225795,-119116,-114204,66965,233225,39232
1022630,-114945,-107404,39470,318084,166838,-114178,225794,-119125,-114234,66959,233258,39236
1022631,-114950,-107429,39416,318053,166758,-114170,225775,-119142,-114222,66987,233393,39180
1022632,-114991,-107445,39373,318023,166633,-114178,225744,-119149,-114229,67025,233457,39141
1022633,-115016,-107453,39345,317992,166523,-114162,225690,-119208,-114215,66994,233448,39107
1022634,-115075,-107477,39301,317939,166486,-114144,225642,-119214,-114194,66948,233331,39066
1022635,-115156,-107516,39256,317908,166558,-114140,225580,-119228,-114194,66937,233299,39022
1022636,-115207,-107555,39220,317912,166614,-114133,225532,-119233,-114191,66941,233182,38985
1022637,-115211,-107575,39198,317891,166576,-114157,225473,-119225,-114210,66948,233137,38964
1022638,-115201,-107582,39206,317860,166499,-114148,225436,-119211,-114206,66943,233085,38971
1022639,-115204,-107566,39229,317869,166422,-114136,225341,-119168,-114187,66974,232988,38997
1022640,-115165,-107561,39217,317892,166391,-114135,225258,-119146,-114190,66961,233011,38985
1022641,-115161,-107564,39203,317894,166398,-114120,225252,-119122,-114171,67005,233074,38967
1022642,-115171,-107567,39181,317847,166360,-114111,225310,-119105,-114163,67074,233157,38946
1022643,-115153,-107549,39214,317891,166382,-114105,225384,-119079,-114157,67093,233141,38979
1022644,-115126,-107516,39232,317931,166418,-114076,225429,-119056,-114129,67101,233133,38998
1022645,-115110,-107498,39216,317951,166454,-114040,225572,-119038,-114092,67133,233032,38982
1022646,-115059,-107478,39207,318022,166457,-114018,225723,-119036,-114070,67144,233069,38973
1022647,-115032,-107445,39225,318055,166426,-114024,225750,-119041,-114079,67123,233293,38991
1022648,-115019,-107431,39272,318059,166481,-114035,225739,-119037,-114088,67161,233441,39038
1022649,-114995,-107428,39333,318029,166561,-114011,225741,-119022,-114063,67176,233480,39098
1022650,-114984,-107418,39384,318041,166531,-113983,225775,-118992,-114036,67208,233375,39151
1022651,-114985,-107423,39382,318022,166447,-113973,225813,-118974,-114025,67201,233283,39148
1022652,-114991,-107419,39375,317973,166339,-114021,225800,-118986,-114076,67161,233299,39139
1022653,-115019,-107446,39309,317821,166272,-114092,225784,-118995,-114147,67123,233448,39073
1022654,-115043,-107477,39267,317720,166213,-114122,225731,-119014,-114176,67104,233463,39032
1022655,-115090,-107514,39228,317733,166282,-114114,225630,-119022,-114169,67120,233370,38990
1022656,-115122,-107543,39147,317750,166413,-114123,225520,-119059,-114179,67092,233264,38912
1022657,-115142,-107563,39115,317741,166448,-114145,225499,-119107,-114195,67034,233215,38879
1022658,-115136,-107572,39076,317738,166443,-114152,225502,-119152,-114206,67007,233235,38839
1022659,-115152,-107582,39065,317752,166393,-114114,225483,-119178,-114170,66983,233217,38828
1022660,-115153,-107580,39094,317744,166330,-114093,225483,-119154,-114143,66934,233142,38858
1022661,-115137,-107580,39129,317751,166355,-114083,225515,-119136,-114140,66915,233135,38893
1022662,-115117,-107569,39156,317778,166380,-114102,225529,-119127,-114156,66959,233158,38920
1022663,-115113,-107548,39177,317853,166403,-114119,225580,-119096,-114171,66953,233184,38940
1022664,-115081,-107526,39183,317886,166471,-114091,225614,-119085,-114147,66972,233209,38946
1022665,-115046,-107502,39216,317861,166495,-114060,225632,-119045,-114116,67015,233194,38978
1022666,-115008,-107474,39233,317888,166445,-113980,225709,-119012,-114033,67039,233209,39000
1022667,-114942,-107423,39283,317953,166406,-113929,225713,-118991,-113980,67097,233218,39048
1022668,-114930,-107402,39303,317989,166480,-113927,225655,-118991,-113980,67177,233311,39069
1022669,-114908,-107392,39295,318026,166502,-113886,225673,-118955,-113939,67198,233323,39060
1022670,-114882,-107363,39305,318045,166434,-113876,225784,-118929,-113930,67178,233205,39069
1022671,-114883,-107342,39333,318054,166296,-113881,225823,-118907,-113932,67211,233074,39100
1022672,-114917,-107343,39325,317915,166369,-113914,225787,-118948,-113966,67155,233171,39088
1022673,-114961,-107377,39292,317814,166373,-113974,225742,-119004,-114029,67130,233243,39058
1022674,-114974,-107421,39234,317814,166357,-114031,225676,-119054,-114085,67079,233302,39000
1022675,-115011,-107445,39240,317885,166433,-114063,225521,-119084,-114117,67074,233198,39008
1022676,-115047,-107473,39197,317881,166472,-114081,225390,-119076,-114134,67079,233125,38961
1022677,-115082,-107479,39189,317884,166454,-114092,225310,-119079,-114147,67095,233008,38955
1022678,-115082,-107477,39201,317894,166256,-114086,225275,-119066,-114138,67058,233025,38965
1022679,-115098,-107491,39159,317861,166128,-114080,225315,-119065,-114134,66962,233122,38926
1022680,-115128,-107521,39122,317857,166059,-114052,225418,-119058,-114105,66985,233117,38887
1022681,-115152,-107541,39083,317792,166107,-114034,225479,-119044,-114089,67053,233233,38852
1022682,-115127,-107551,39056,317716,166125,-114030,225606,-119052,-114082,67060,233352,38819
1022683,-115083,-107509,39091,317705,166082,-114013,225702,-119048,-114066,67059,233410,38855
1022684,-115045,-107483,39102,317722,166127,-114001,225771,-119045,-114054,67077,233440,38867
1022685,-115000,-107472,39117,317730,166306,-114023,225822,-119035,-114076,67073,233370,38882
1022686,-114967,-107442,39095,317772,166482,-114019,225875,-119038,-114073,67108,233307,38859
1022687,-114946,-107430,39101,317909,166631,-114019,225889,-119050,-114069,67105,233329,38867
1022688,-114935,-107388,39142,318040,166706,-113997,225897,-119036,-114052,67059,233312,38905
1022689,-114899,-107364,39196,318086,166732,-113952,225920,-118983,-114005,67090,233168,38962
1022690,-114878,-107332,39289,318081,166658,-113961,225943,-118973,-114013,67102,233128,39054
1022691,-114883,-107331,39334,318024,166589,-113970,225927,-118954,-114024,67090,233136,39097
1022692,-114917,-107358,39330,318044,166535,-114008,225876,-118986,-114064,67068,233165,39101
1022693,-114961,-107374,39305,318028,166537,-114042,225793,-119026,-114097,66999,233173,39070
1022694,-115003,-107404,39263,318008,166555,-114074,225729,-119048,-114125,66969,233116,39030
1022695,-115013,-107414,39212,317919,166491,-114110,225718,-119083,-114163,66974,233073,38976
1022696,-115057,-107442,39212,317841,166384,-114120,225709,-119131,-114175,66906,233150,38978
1022697,-115083,-107468,39182,317791,166293,-114142,225694,-119132,-114197,66851,233209,38949
1022698,-115108,-107500,39108,317716,166263,-114141,225633,-119161,-114194,66952,233240,38874
1022699,-115130,-107519,39064,317664,166183,-114142,225553,-119161,-114193,67033,233280,38830
1022700,-115115,-107507,39042,317674,166053,-114123,225517,-119143,-114181,67068,233284,38806
1022701,-115081,-107494,39063,317680,166059,-114111,225588,-119122,-114166,67098,233222,38830
1022702,-115051,-107495,39092,317711,166117,-114099,225639,-119110,-114150,67043,233263,38860
1022703,-115042,-107503,39158,317758,166091,-114093,225670,-119087,-114145,67025,233348,38923
1022704,-115050,-107486,39207,317781,166171,-114096,225696,-119071,-114148,67065,233358,38975
1022705,-115009,-107467,39221,317754,166279,-114101,225704,-119068,-114153,67057,233387,38986
1022706,-114955,-107433,39237,317754,166330,-114085,225748,-119034,-114136,67067,233421,39003
1022707,-114911,-107388,39292,317846,166325,-114079,225779,-119032,-114134,67098,233392,39057
1022708,-114874,-107347,39325,317923,166279,-114073,225785,-118999,-114125,67136,233370,39092
1022709,-114851,-107311,39363,317956,166260,-114057,225861,-118964,-114110,67156,233315,39129
1022710,-114861,-107308,39347,317902,166364,-114057,225895,-118972,-114110,67141,233301,39116
1022711,-114885,-107309,39291,317816,166463,-114095,225881,-119002,-114148,67080,233390,39058
1022712,-114904,-107325,39247,317809,166333,-114089,225815,-119001,-114141,67068,233439,39017
1022713,-114931,-107357,39193,317859,166292,-114123,225679,-119050,-114179,67076,233418,38959
1022714,-114959,-107421,39186,317860,166302,-114159,225554,-119095,-114211,67041,233362,38952
1022715,-115008,-107418,39180,317929,166321,-114175,225532,-119126,-114225,66986,233147,38948
1022716,-115062,-107430,39154,317951,166365,-114210,225521,-119152,-114263,66910,233008,38921
1022717,-115093,-107465,39130,317925,166417,-114261,225464,-119148,-114314,66873,232960,38896
1022718,-115062,-107445,39168,317975,166424,-114316,225366,-119147,-114371,66784,232852,38934
1022719,-115083,-107446,39167,317981,166358,-114317,225355,-119138,-114369,66775,232713,38933
1022720,-115122,-107463,39151,317928,166394,-114297,225455,-119152,-114351,66753,232671,38915
1022721,-115143,-107460,39144,317881,166512,-114273,225517,-119183,-114323,66783,232661,38914
1022722,-115135,-107473,39161,317897,166575,-114254,225508,-119230,-114306,66798,232820,38922
1022723,-115128,-107474,39162,317907,166561,-114233,225551,-119256,-114287,66831,232955,38927
1022724,-115074,-107450,39187,317929,166542,-114222,225620,-119259,-114272,66849,233008,38951
1022725,-115070,-107446,39232,317938,166470,-114206,225673,-119249,-114259,66860,233120,38997
1022726,-115048,-107439,39259,317988,166550,-114170,225679,-119233,-114226,66888,233203,39024
1022727,-115044,-107421,39283,318005,166554,-114118,225684,-119186,-114173,66969,233246,39047
1022728,-115025,-107407,39290,318027,166545,-114108,225723,-119156,-114164,67037,233288,39057
1022729,-115003,-107370,39322,318041,166493,-114118,225765,-119122,-114172,67096,233320,39088
1022730,-114962,-107340,39346,317991,166357,-114147,225809,-119068,-114200,67126,233277,39111
1022731,-114960,-107336,39355,317973,166283,-114153,225793,-119061,-114204,67147,233245,39122
1022732,-114985,-107353,39350,317946,166233,-114157,225718,-119072,-114209,67153,233238,39119
1022733,-115011,-107395,39335,317871,166237,-114165,225510,-119096,-114218,67110,233267,39102
1022734,-115039,-107435,39307,317856,166251,-114170,225396,-119140,-114222,67085,233212,39073
1022735,-115114,-107471,39257,317837,166284,-114189,225448,-119187,-114238,67045,233175,39023
1022736,-115115,-107485,39229,317852,166266,-114213,225435,-119225,-114263,66992,233106,38996
1022737,-115151,-107503,39191,317897,166254,-114218,225453,-119245,-114272,66925,232986,38961
1022738,-115171,-107505,39151,317814,166271,-114244,225513,-119259,-114294,66868,232991,38921
1022739,-115205,-107529,39073,317717,166276,-114269,225535,-119299,-114319,66863,233067,38841
1022740,-115241,-107538,39057,317715,166286,-114298,225498,-119328,-114352,66853,233183,38825
1022741,-115215,-107526,39090,317723,166272,-114286,225496,-119314,-114340,66865,233200,38856
1022742,-115202,-107537,39127,317799,166308,-114281,225495,-119302,-114332,66880,233194,38895
1022743,-115191,-107504,39212,317889,166271,-114246,225534,-119285,-114302,66907,233140,38976
1022744,-115149,-107471,39275,317939,166278,-114210,225576,-119250,-114262,66923,233042,39041
1022745,-115118,-107435,39322,317914,166301,-114173,225565,-119217,-114223,66979,233064,39086
1022746,-115110,-107442,39325,317933,166406,-114163,225535,-119183,-114216,67018,233198,39092
1022747,-115063,-107424,39343,318011,166561,-114186,225533,-119203,-114238,67046,233253,39107
1022748,-115010,-107404,39339,318058,166541,-114161,225582,-119158,-114214,67015,233294,39106
1022749,-115005,-107390,39357,318071,166435,-114122,225657,-119121,-114173,67048,233373,39123
1022750,-114979,-107368,39376,318040,166304,-114108,225760,-119104,-114159,67031,233387,39142
1022751,-114957,-107367,39363,318066,166262,-114088,225782,-119116,-114140,67036,233243,39127
1022752,-114996,-107393,39334,318048,166246,-114079,225782,-119134,-114130,67095,233190,39102
1022753,-115062,-107445,39246,318008,166254,-114097,225757,-119162,-114152,67090,233173,39010
1022754,-115093,-107464,39201,317963,166288,-114150,225710,-119184,-114203,67076,233102,38968
1022755,-115116,-107496,39165,317947,166386,-114200,225671,-119217,-114253,67012,233061,38930
1022756,-115151,-107533,39151,317954,166435,-114229,225637,-119238,-114282,66879,233037,38915
1022757,-115175,-107561,39167,317935,166419,-114232,225630,-119232,-114286,66812,232925,38931
1022758,-115172,-107565,39173,317872,166336,-114218,225607,-119238,-114270,66826,232883,38940
1022759,-115201,-107569,39208,317825,166278,-114233,225577,-119252,-114284,66851,232937,38977
1022760,-115223,-107587,39229,317818,166357,-114248,225582,-119259,-114302,66838,232934,38993
1022761,-115206,-107579,39235,317804,166397,-114201,225577,-119226,-114251,66875,232921,39001
1022762,-115160,-107564,39256,317817,166399,-114162,225611,-119191,-114213,66902,232871,39022
1022763,-115148,-107554,39268,317825,166454,-114172,225629,-119171,-114225,66905,232996,39035
1022764,-115129,-107539,39245,317822,166389,-114182,225624,-119162,-114237,66977,233316,39009
1022765,-115113,-107522,39275,317837,166316,-114136,225616,-119180,-114191,67054,233473,39041
1022766,-115093,-107483,39270,317907,166309,-114098,225605,-119128,-114151,67129,233532,39040
1022767,-115043,-107486,39322,317938,166412,-114088,225622,-119108,-114140,67160,233563,39090
1022768,-115014,-107465,39360,318020,166451,-114091,225715,-119096,-114144,67200,233520,39127
1022769,-115025,-107444,39343,318093,166423,-114064,225820,-119053,-114116,67205,233542,39111
1022770,-115000,-107422,39302,318111,166358,-114026,225873,-118998,-114084,67214,233537,39069
1022771,-115026,-107435,39272,318144,166304,-114021,225845,-119005,-114077,67204,233594,39036
1022772,-115056,-107436,39265,318022,166462,-114051,225842,-119016,-114104,67140,233579,39030
1022773,-115070,-107450,39249,317897,166583,-114086,225836,-119079,-114138,67103,233463,39017
1022774,-115083,-107460,39222,317879,166510,-114109,225771,-119084,-114162,67087,233361,38989
1022775,-115076,-107449,39204,317877,166335,-114101,225716,-119081,-114157,67109,233315,38971
1022776,-115082,-107460,39215,317860,166285,-114150,225662,-119103,-114204,67074,233252,38984
1022777,-115095,-107487,39180,317841,166339,-114179,225639,-119118,-114231,67008,233194,38945
1022778,-115118,-107511,39150,317854,166354,-114167,225619,-119111,-114219,66977,233140,38914
1022779,-115156,-107519,39160,317913,166332,-114193,225515,-119144,-114247,66996,233139,38924
1022780,-115128,-107496,39170,317965,166361,-114182,225447,-119164,-114237,66982,233106,38934
1022781,-115118,-107488,39186,318015,166355,-114142,225454,-119144,-114192,67040,233048,38953
1022782,-115084,-107481,39176,317974,166383,-114089,225468,-119111,-114142,67092,233082,38940
1022783,-115062,-107480,39194,317940,166428,-114046,225498,-119087,-114098,67126,233125,38960
1022784,-115048,-107490,39216,317974,166454,-114007,225583,-119069,-114063,67132,233172,38980
1022785,-115041,-107453,39250,317987,166436,-114010,225707,-119049,-114064,67085,233279,39016
1022786,-114989,-107420,39278,318049,166527,-114012,225779,-119048,-114067,67043,233311,39043
1022787,-114961,-107386,39329,318120,166624,-114010,225856,-119031,-114065,67066,233260,39096
1022788,-114926,-107375,39349,318157,166649,-113996,225930,-119006,-114051,67114,233255,39114
1022789,-114917,-107352,39370,318186,166666,-113964,225954,-118985,-114014,67155,233323,39136
1022790,-114923,-107340,39360,318207,166676,-113945,225948,-118968,-113999,67135,233365,39126
1022791,-114943,-107344,39339,318214,166610,-113965,225980,-118964,-114017,67158,233351,39104
1022792,-114931,-107370,39280,318187,166530,-113988,225997,-118989,-114039,67161,233312,39045
1022793,-114936,-107384,39264,318100,166456,-114027,225958,-119000,-114079,67169,233283,39032
1022794,-114989,-107381,39258,317997,166377,-114042,225858,-119013,-114094,67116,233370,39022
1022795,-114986,-107377,39229,317930,166309,-114038,225832,-119019,-114091,67046,233346,38993
1022796,-114990,-107398,39146,317878,166338,-114049,225814,-119041,-114103,67065,233194,38914
1022797,-114992,-107402,39089,317857,166358,-114073,225726,-119050,-114126,67099,233138,38855
1022798,-114987,-107409,39065,317870,166347,-114088,225774,-119082,-114139,67076,233087,38827
1022799,-115025,-107427,39045,317779,166292,-114091,225835,-119091,-114145,67058,233092,38809
1022800,-115029,-107442,39080,317776,166226,-114088,225822,-119088,-114144,67079,233144,38847
1022801,-115030,-107483,39118,317790,166147,-114060,225798,-119076,-114114,67148,233267,38884
1022802,-115028,-107491,39156,317838,166198,-114062,225770,-119088,-114115,67142,233396,38921
1022803,-115014,-107478,39187,317904,166269,-114085,225749,-119078,-114139,67148,233491,38954
1022804,-114986,-107447,39225,317941,166276,-114081,225770,-119056,-114133,67164,233505,38992
1022805,-114947,-107416,39262,318028,166239,-114075,225788,-119026,-114128,67191,233474,39027
1022806,-114924,-107387,39296,318047,166196,-114036,225863,-118982,-114091,67212,233523,39060
1022807,-114881,-107328,39321,318118,166223,-114014,225904,-118944,-114068,67234,233530,39089
1022808,-114831,-107306,39352,318185,166301,-114055,225975,-118908,-114105,67217,233409,39118
1022809,-114780,-107263,39386,318244,166464,-114040,226041,-118905,-114090,67228,233154,39151
1022810,-114772,-107237,39403,318214,166613,-114048,226053,-118929,-114099,67135,233105,39167
1022811,-114818,-107243,39393,318160,166646,-114039,225992,-118983,-114091,67066,233303,39157
1022812,-114877,-107277,39372,318082,166583,-114017,225949,-119008,-114073,67052,233393,39137
1022813,-114891,-107308,39343,317999,166498,-114015,225883,-119046,-114068,67072,233374,39107
1022814,-114917,-107331,39322,317900,166520,-113995,225753,-119074,-114049,67058,233263,39089
1022815,-114950,-107337,39312,317846,166576,-114013,225700,-119100,-114066,67043,233097,39080
1022816,-114997,-107367,39280,317842,166524,-114073,225673,-119121,-114128,67002,233154,39047
1022817,-115026,-107392,39242,317822,166454,-114133,225620,-119146,-114185,66959,233268,39008
1022818,-115057,-107421,39172,317845,166467,-114173,225598,-119177,-114227,66996,233219,38933
1022819,-115104,-107448,39127,317878,166404,-114193,225620,-119199,-114247,66996,233204,38893
1022820,-115109,-107461,39121,317882,166460,-114222,225645,-119218,-114277,66957,233176,38887
1022821,-115106,-107443,39150,317933,166465,-114215,225639,-119212,-114265,66940,233182,38915
1022822,-115092,-107442,39151,317969,166521,-114192,225662,-119220,-114245,66897,233251,38920
1022823,-115065,-107427,39176,318037,166592,-114191,225682,-119227,-114245,66874,233224,38943
1022824,-115034,-107391,39209,318096,166584,-114196,225701,-119221,-114249,66962,233184,38973
1022825,-114967,-107358,39234,318127,166595,-114204,225701,-119199,-114256,67012,233146,38998
1022826,-114933,-107332,39293,318172,166564,-114182,225713,-119196,-114237,67049,233197,39057
1022827,-114889,-107314,39303,318176,166454,-114128,225750,-119154,-114179,67119,233286,39069
1022828,-114887,-107306,39321,318175,166447,-114117,225799,-119107,-114172,67132,233355,39088
1022829,-114886,-107296,39296,318141,166530,-114101,225836,-119075,-114151,67148,233426,39063
1022830,-114878,-107284,39250,318128,166575,-114116,225872,-119082,-114167,67140,233454,39018
1022831,-114902,-107300,39172,318111,166562,-114111,225936,-119069,-114166,67133,233397,38938
1022832,-114909,-107320,39136,318079,166538,-114140,225942,-119097,-114192,67130,233354,38900
1022833,-114945,-107317,39161,318110,166457,-114192,225905,-119138,-114244,67093,233202,38926
1022834,-114969,-107324,39228,318131,166247,-114212,225898,-119147,-114262,67097,232967,38995
1022835,-114967,-107337,39272,318144,166105,-114198,225872,-119144,-114249,67039,232831,39038
1022836,-114997,-107366,39262,318035,166047,-114216,225789,-119175,-114273,66938,232930,39024
1022837,-115013,-107367,39229,317840,166038,-114235,225744,-119176,-114288,66948,232985,38995
1022838,-115057,-107375,39207,317749,166013,-114213,225705,-119198,-114266,66951,233024,38972
1022839,-115134,-107421,39202,317667,166142,-114250,225649,-119238,-114303,66930,233139,38967
1022840,-115187,-107455,39201,317642,166265,-114268,225572,-119278,-114319,66871,233299,38970
1022841,-115178,-107439,39212,317766,166199,-114266,225582,-119290,-114320,66868,233359,38977
1022842,-115148,-107447,39225,317910,166211,-114278,225541,-119277,-114331,66928,233351,38990
1022843,-115116,-107439,39252,317941,166254,-114277,225533,-119262,-114329,66992,233355,39017
1022844,-115115,-107429,39276,317986,166351,-114286,225583,-119249,-114337,67009,233325,39041
1022845,-115109,-107415,39294,318015,166507,-114268,225631,-119243,-114322,67030,233210,39060
1022846,-115088,-107412,39330,318062,166575,-114237,225670,-119227,-114288,67065,233227,39097
1022847,-115051,-107384,39386,318142,166593,-114225,225708,-119210,-114277,67051,233255,39154
1022848,-115028,-107359,39435,318209,166719,-114235,225755,-119231,-114293,66986,233289,39204
1022849,-115003,-107347,39457,318270,166865,-114234,225745,-119211,-114287,66992,233243,39227
1022850,-114967,-107333,39475,318264,166892,-114232,225659,-119202,-114285,67026,233201,39243
1022851,-114954,-107316,39456,318213,166775,-114206,225660,-119177,-114258,67024,233288,39223
1022852,-114976,-107359,39389,318097,166701,-114200,225660,-119183,-114254,67001,233374,39156
1022853,-115014,-107389,39335,317990,166714,-114226,225620,-119194,-114279,67010,233365,39104
1022854,-115075,-107427,39280,317954,166617,-114241,225605,-119197,-114294,67027,233299,39048
1022855,-115127,-107443,39269,317969,166541,-114256,225633,-119248,-114312,66983,233266,39036
1022856,-115143,-107453,39239,317940,166463,-114265,225632,-119261,-114319,66934,233205,39005
1022857,-115159,-107494,39196,317933,166388,-114273,225589,-119276,-114325,66925,233198,38962
1022858,-115182,-107509,39181,317950,166332,-114243,225538,-119301,-114295,66907,233218,38945
1022859,-115190,-107498,39168,317946,166212,-114214,225524,-119289,-114268,66944,233104,38934
1022860,-115172,-107509,39189,317972,166169,-114200,225476,-119271,-114250,66998,233071,38959
1022861,-115150,-107506,39195,317962,166155,-114190,225426,-119240,-114243,67074,233068,38959
1022862,-115082,-107478,39213,317876,166147,-114159,225423,-119196,-114207,67126,233055,38977
1022863,-115070,-107454,39231,317896,166178,-114148,225470,-119167,-114203,67150,233066,38999
1022864,-115122,-107432,39209,317927,166178,-114166,225579,-119141,-114219,67173,233194,38974
1022865,-115121,-107414,39216,318008,166209,-114150,225581,-119141,-114203,67175,233256,38986
1022866,-115094,-107409,39260,318067,166330,-114113,225649,-119125,-114167,67237,233185,39029
1022867,-115062,-107416,39266,318046,166443,-114058,225717,-119153,-114111,67284,233256,39029
1022868,-115043,-107405,39306,318122,166528,-114065,225778,-119159,-114119,67214,233392,39073
1022869,-115005,-107400,39371,318227,166595,-114067,225840,-119193,-114119,67194,233325,39138
1022870,-114970,-107386,39371,318196,166592,-114045,225871,-119183,-114099,67145,233337,39137
1022871,-114951,-107390,39354,318141,166589,-114024,225783,-119184,-114075,67099,233418,39119
1022872,-114976,-107418,39331,318076,166524,-114018,225766,-119183,-114070,67117,233452,39098
1022873,-115057,-107457,39320,317961,166525,-114054,225756,-119206,-114108,67141,233445,39084
1022874,-115094,-107480,39268,317866,166354,-114050,225743,-119187,-114105,67189,233424,39033
1022875,-115097,-107500,39235,317832,166207,-114077,225706,-119178,-114130,67176,233416,38999
1022876,-115097,-107520,39182,317779,166236,-114091,225678,-119205,-114144,67140,233349,38948
1022877,-115132,-107540,39134,317767,166394,-114116,225681,-119227,-114169,67040,233268,38897
1022878,-115134,-107538,39076,317828,166438,-114173,225684,-119261,-114228,66956,233251,38838
1022879,-115162,-107526,39055,317829,166431,-114188,225631,-119274,-114242,66930,233235,38823
1022880,-115185,-107519,39072,317840,166487,-114184,225594,-119254,-114237,66887,233178,38836
1022881,-115207,-107513,39120,317878,166533,-114175,225573,-119226,-114229,66953,233113,38886
1022882,-115196,-107497,39182,317938,166556,-114152,225576,-119206,-114200,66953,233069,38949
1022883,-115194,-107502,39244,318020,166555,-114103,225571,-119206,-114156,66924,233190,39011
1022884,-115139,-107471,39269,318046,166535,-114101,225594,-119167,-114154,66955,233249,39036
1022885,-115116,-107452,39300,318005,166511,-114071,225654,-119150,-114124,67098,233202,39067
1022886,-115059,-107452,39300,318011,166544,-114055,225768,-119129,-114107,67197,233213,39067
1022887,-115013,-107448,39319,318044,166590,-114056,225837,-119139,-114109,67237,233300,39085
1022888,-114961,-107436,39315,318081,166656,-114038,225880,-119127,-114094,67232,233379,39078
1022889,-114972,-107426,39315,318167,166687,-114067,225874,-119132,-114123,67267,233473,39080
1022890,-114948,-107387,39336,318186,166639,-114078,225879,-119122,-114133,67281,233500,39098
1022891,-114941,-107378,39364,318128,166468,-114081,225883,-119117,-114133,67269,233577,39127
1022892,-114909,-107383,39356,318076,166271,-114037,225883,-119114,-114089,67231,233576,39120
1022893,-114932,-107411,39296,318067,166227,-114042,225854,-119143,-114096,67217,233467,39061
1022894,-114979,-107426,39219,318010,166270,-114049,225774,-119141,-114100,67171,233408,38985
1022895,-114998,-107450,39185,318008,166371,-114130,225796,-119164,-114184,67073,233305,38951
1022896,-115002,-107459,39162,317997,166313,-114175,225793,-119162,-114229,67062,233190,38927
1022897,-115014,-107463,39117,317943,166265,-114203,225756,-119158,-114254,67076,233153,38881
1022898,-115014,-107456,39094,317993,166292,-114209,225712,-119168,-114263,67011,233051,38855
1022899,-115016,-107459,39095,317978,166409,-114193,225691,-119183,-114246,66962,232818,38859
1022900,-115045,-107474,39089,317972,166509,-114141,225647,-119180,-114193,66946,232754,38855
1022901,-115045,-107476,39110,318010,166562,-114096,225623,-119203,-114149,66896,232852,38877
1022902,-115011,-107458,39142,318046,166602,-114085,225630,-119205,-114141,66949,232809,38908
1022903,-115014,-107469,39156,318045,166595,-114070,225667,-119180,-114123,66965,232941,38920
1022904,-115047,-107460,39183,318090,166627,-114095,225685,-119186,-114149,67018,233212,38947
1022905,-115016,-107437,39179,318062,166596,-114114,225688,-119180,-114164,67018,233451,38947
1022906,-114964,-107429,39216,318012,166577,-114109,225728,-119168,-114163,67068,233600,38983
1022907,-114941,-107399,39247,318034,166463,-114076,225796,-119136,-114130,67166,233693,39011
1022908,-114902,-107364,39306,318060,166375,-114042,225849,-119097,-114094,67236,233690,39072
1022909,-114901,-107346,39355,318066,166381,-114009,225901,-119081,-114066,67247,233684,39119
1022910,-114900,-107341,39353,318035,166429,-113996,225889,-119065,-114049,67264,233718,39118
1022911,-114915,-107347,39365,318034,166367,-113989,225818,-119071,-114042,67292,233728,39130
1022912,-114908,-107354,39346,318001,166311,-114005,225788,-119088,-114057,67294,233698,39114
1022913,-114927,-107386,39314,317991,166258,-114035,225803,-119121,-114088,67248,233622,39078
1022914,-114949,-107396,39276,317955,166213,-114055,225830,-119135,-114110,67190,233431,39041
1022915,-115010,-107420,39229,317943,166406,-114079,225776,-119153,-114131,67139,233311,38993
1022916,-115031,-107426,39232,317987,166460,-114113,225756,-119179,-114166,67070,233065,38997
1022917,-115045,-107430,39248,318006,166451,-114164,225759,-119216,-114218,67026,232961,39015
1022918,-115073,-107431,39253,318031,166470,-114236,225724,-119257,-114286,66983,232968,39020
1022919,-115101,-107440,39266,318052,166549,-114293,225663,-119310,-114346,66925,232967,39030
1022920,-115106,-107429,39259,318050,166597,-114293,225641,-119338,-114344,66887,232975,39023
1022921,-115112,-107430,39253,317969,166592,-114273,225669,-119297,-114327,66947,233030,39018
1022922,-115083,-107430,39243,317884,166580,-114235,225684,-119287,-114290,66968,233197,39009
1022923,-115037,-107421,39238,317895,166558,-114215,225706,-119281,-114270,66946,233330,39001
1022924,-115020,-107400,39294,317983,166507,-114203,225722,-119285,-114259,66954,233407,39058
1022925,-115001,-107396,39300,318097,166493,-114201,225732,-119249,-114254,66998,233387,39066
1022926,-114974,-107379,39293,318163,166506,-114147,225765,-119209,-114201,67049,233405,39062
1022927,-114922,-107352,39262,318240,166568,-114102,225703,-119133,-114154,67124,233376,39029
1022928,-114886,-107323,39258,318257,166632,-114078,225638,-119112,-114131,67196,233388,39026
1022929,-114901,-107311,39252,318271,166594,-114052,225729,-119072,-114107,67247,233412,39017
