Timestamp (ms),Ch0 (uV),Ch1 (uV),Ch2 (uV),Ch3 (uV),Ch4 (uV),Ch5 (uV),Ch6 (uV),Ch7 (uV),Ch8 (uV),Ch9 (uV),Ch10 (uV),Ch11 (uV)
1004258,-115048,-108848,37805,314126,165398,-114313,226417,-118619,-114367,67778,232521,37570
1004259,-115040,-108849,37773,314113,165427,-114291,226386,-118619,-114346,67743,232504,37537
1004260,-115017,-108854,37739,314128,165407,-114293,226424,-118627,-114347,67682,232467,37504
1004261,-115046,-108841,37708,314111,165355,-114256,226464,-118619,-114311,67689,232517,37473
1004262,-115095,-108829,37737,314150,165385,-114236,226458,-118619,-114290,67704,232564,37503
1004263,-115094,-108806,37767,314193,165508,-114224,226469,-118610,-114276,67759,232523,37531
1004264,-115054,-108787,37831,314238,165568,-114198,226479,-118599,-114251,67804,232448,37594
1004265,-114991,-108783,37884,314276,165616,-114192,226515,-118595,-114245,67815,232501,37648
1004272,-114793,-108644,38003,314294,165610,-114184,226851,-118492,-114238,68025,232803,37771
1004273,-114715,-108641,37955,314247,165584,-114212,226788,-118486,-114268,67993,232653,37719
1004274,-114712,-108643,37921,314276,165529,-114218,226646,-118461,-114270,67982,232445,37686
1004275,-114753,-108657,37883,314291,165492,-114218,226532,-118495,-114273,67933,232422,37650
1004276,-114815,-108686,37902,314379,165436,-114226,226458,-118526,-114282,67804,232468,37669
1004277,-114866,-108714,37901,314418,165408,-114250,226447,-118580,-114305,67786,232471,37665
1004278,-114891,-108770,37805,314301,165495,-114238,226460,-118606,-114290,67791,232465,37570
1004279,-114926,-108785,37766,314192,165383,-114220,226491,-118609,-114272,67829,232569,37532
1004280,-114930,-108780,37769,314174,165381,-114267,226504,-118625,-114321,67779,232602,37534
1004281,-114918,-108791,37774,314170,165343,-114276,226520,-118616,-114328,67830,232674,37541
1004282,-114906,-108788,37787,314180,165252,-114261,226555,-118592,-114316,67845,232780,37553
1004283,-114907,-108763,37813,314253,165129,-114212,226610,-118550,-114264,67872,232754,37577
1004284,-114877,-108751,37871,314272,165163,-114220,226666,-118518,-114274,67895,232714,37637
1004285,-114847,-108721,37865,314263,165377,-114222,226696,-118507,-114277,67951,232627,37629
1004286,-114822,-108717,37865,314272,165638,-114224,226736,-118523,-114279,67917,232549,37632
1004287,-114749,-108665,37928,314369,165672,-114187,226790,-118547,-114241,67808,232617,37692
1004288,-114737,-108633,37989,314466,165733,-114173,226770,-118544,-114225,67781,232738,37757
1004289,-114728,-108603,37976,314455,165669,-114128,226755,-118494,-114181,67892,232850,37739
1004290,-114737,-108608,37947,314477,165763,-114123,226712,-118469,-114176,67943,232969,37714
1004291,-114753,-108607,37935,314509,165885,-114132,226743,-118443,-114187,67901,232918,37702
1004292,-114772,-108639,37948,314472,165959,-114142,226752,-118448,-114197,67887,232904,37713
1004293,-114815,-108678,37943,314412,165945,-114127,226720,-118473,-114179,67880,232861,37708
1004294,-114827,-108665,37963,314360,165897,-114150,226684,-118497,-114203,67883,232698,37730
1004295,-114811,-108681,37965,314332,165771,-114189,226629,-118539,-114242,67932,232551,37729
1004296,-114804,-108659,37966,314316,165635,-114218,226603,-118544,-114272,67914,232552,37729
1004297,-114831,-108690,37934,314301,165572,-114263,226610,-118552,-114315,67859,232486,37698
1004298,-114866,-108711,37879,314220,165526,-114226,226701,-118507,-114280,67901,232312,37645
1004299,-114886,-108731,37854,314103,165522,-114214,226761,-118493,-114267,67905,232257,37620
1004300,-114917,-108738,37838,314058,165440,-114222,226717,-118535,-114272,67836,232527,37602
1004301,-114895,-108716,37851,314158,165423,-114219,226627,-118569,-114269,67781,232640,37620
1004302,-114901,-108708,37845,314235,165479,-114228,226586,-118555,-114279,67759,232695,37612
1004303,-114920,-108699,37822,314203,165562,-114188,226618,-118537,-114238,67728,232744,37587
1004304,-114874,-108671,37838,314260,165693,-114182,226656,-118554,-114235,67704,232687,37603
1004305,-114806,-108656,37881,314357,165761,-114198,226648,-118537,-114252,67766,232640,37648
1004306,-114780,-108646,37903,314360,165656,-114167,226634,-118512,-114221,67905,232675,37667
1004307,-114737,-108631,37922,314390,165585,-114146,226705,-118475,-114198,68016,232762,37689
1004308,-114695,-108591,37889,314344,165606,-114098,226793,-118418,-114153,68032,232791,37654
1004309,-114656,-108570,37906,314366,165716,-114090,226827,-118415,-114144,68037,232830,37670
1004310,-114663,-108538,37965,314461,165770,-114098,226791,-118431,-114151,68045,232831,37729
1004311,-114711,-108562,38021,314514,165746,-114107,226820,-118439,-114161,68093,232799,37785
1004312,-114753,-108583,38084,314555,165744,-114130,226892,-118485,-114180,68131,232574,37850
1004313,-114769,-108609,38075,314560,165764,-114155,226911,-118491,-114210,68128,232448,37836
1004314,-114781,-108647,38042,314519,165768,-114215,226834,-118544,-114268,68091,232421,37807
1004315,-114801,-108658,37993,314468,165687,-114243,226767,-118582,-114293,68024,232466,37758
1004316,-114806,-108671,37987,314427,165564,-114231,226765,-118582,-114284,67988,232477,37753
1004317,-114842,-108674,37972,314310,165489,-114223,226752,-118589,-114277,67880,232525,37738
1004318,-114839,-108694,37958,314284,165511,-114232,226637,-118598,-114287,67821,232538,37723
1004319,-114877,-108703,37946,314289,165530,-114271,226541,-118622,-114325,67798,232585,37710
1004320,-114884,-108693,37939,314344,165479,-114365,226559,-118612,-114420,67816,232501,37705
1004321,-114877,-108694,37919,314329,165472,-114375,226601,-118612,-114429,67794,232521,37689
1004322,-114879,-108706,37950,314301,165516,-114399,226640,-118600,-114450,67743,232629,37717
1004323,-114855,-108708,37973,314300,165539,-114347,226681,-118610,-114400,67732,232641,37741
1004324,-114852,-108705,37976,314294,165600,-114285,226718,-118615,-114339,67797,232667,37741
1004325,-114828,-108674,37996,314278,165679,-114216,226740,-118618,-114267,67881,232716,37762
1004326,-114825,-108668,37993,314255,165737,-114193,226726,-118606,-114242,67971,232707,37761
1004327,-114756,-108618,38028,314359,165765,-114164,226761,-118551,-114216,68059,232568,37793
1004328,-114713,-108574,38058,314495,165788,-114176,226749,-118561,-114228,68044,232581,37822
1004329,-114665,-108561,38091,314626,165645,-114156,226779,-118535,-114210,68044,232688,37856
1004330,-114662,-108551,38098,314629,165550,-114098,226805,-118495,-114154,68075,232759,37865
1004331,-114693,-108562,38081,314555,165655,-114123,226755,-118508,-114180,68050,233004,37844
1004332,-114734,-108584,38051,314509,165695,-114161,226753,-118549,-114216,67992,233144,37816
1004333,-114796,-108609,38037,314483,165698,-114184,226736,-118569,-114237,67986,233153,37804
1004334,-114832,-108628,38041,314405,165655,-114200,226655,-118586,-114251,67995,233067,37804
1004335,-114837,-108643,38058,314397,165628,-114227,226573,-118621,-114280,67929,232939,37821
1004336,-114823,-108625,38071,314358,165526,-114269,226607,-118668,-114322,67911,232840,37835
1004337,-114853,-108641,38058,314285,165492,-114296,226532,-118690,-114349,67887,232776,37823
1004338,-114889,-108662,38046,314298,165575,-114352,226479,-118697,-114405,67849,232715,37814
1004339,-114914,-108676,38005,314263,165582,-114371,226400,-118696,-114425,67828,232737,37770
1004340,-114941,-108676,37963,314229,165607,-114343,226392,-118663,-114394,67809,232726,37732
1004341,-114999,-108674,37932,314288,165573,-114304,226472,-118647,-114359,67793,232675,37698
1004342,-115001,-108656,37930,314340,165547,-114279,226532,-118619,-114334,67822,232579,37692
1004343,-114945,-108639,37933,314372,165566,-114275,226569,-118605,-114329,67849,232510,37697
1004344,-114898,-108627,37987,314444,165590,-114257,226587,-118599,-114308,67857,232486,37754
1004345,-114860,-108625,38023,314468,165684,-114268,226663,-118618,-114321,67884,232480,37788
1004346,-114844,-108611,38080,314542,165729,-114294,226680,-118647,-114346,67877,232501,37843
1004347,-114774,-108593,38143,314623,165789,-114303,226728,-118626,-114358,67909,232523,37907
1004348,-114738,-108578,38178,314613,165816,-114271,226801,-118606,-114323,67892,232549,37941
1004349,-114703,-108557,38207,314571,165818,-114217,226849,-118565,-114272,67887,232598,37971
1004350,-114668,-108534,38212,314541,165798,-114188,226895,-118533,-114240,67875,232620,37976
1004351,-114641,-108541,38195,314522,165791,-114201,226935,-118511,-114254,67892,232594,37959
1004352,-114645,-108541,38188,314586,165786,-114237,226929,-118519,-114290,67854,232518,37952
1004353,-114682,-108557,38160,314559,165796,-114272,226864,-118565,-114325,67861,232501,37924
1004354,-114722,-108579,38139,314444,165784,-114252,226805,-118573,-114305,67821,232445,37902
1004355,-114759,-108578,38119,314363,165748,-114248,226776,-118583,-114303,67798,232279,37886
1004356,-114786,-108591,38066,314351,165703,-114250,226733,-118605,-114302,67785,232268,37834
1004357,-114799,-108600,37991,314329,165613,-114262,226598,-118632,-114315,67755,232321,37757
1004358,-114814,-108622,37962,314303,165537,-114274,226439,-118626,-114325,67771,232452,37730
1004359,-114851,-108631,37911,314269,165539,-114296,226359,-118634,-114350,67746,232621,37675
1004360,-114895,-108618,37850,314243,165390,-114296,226342,-118621,-114349,67802,232726,37617
1004361,-114907,-108618,37828,314271,165189,-114268,226428,-118594,-114322,67883,232760,37593
1004362,-114885,-108636,37866,314275,165184,-114249,226438,-118578,-114303,67942,232782,37633
1004363,-114915,-108652,37913,314230,165338,-114238,226435,-118543,-114290,67955,232800,37679
1004364,-114903,-108650,37919,314246,165411,-114246,226603,-118536,-114299,67947,232755,37686
1004365,-114828,-108639,37933,314235,165433,-114249,226699,-118519,-114303,67943,232807,37698
1004366,-114787,-108639,37974,314258,165585,-114229,226702,-118497,-114283,67955,232680,37739
1004367,-114750,-108609,38036,314385,165658,-114217,226762,-118477,-114268,67969,232575,37801
1004368,-114712,-108584,38067,314543,165628,-114222,226863,-118449,-114275,67947,232613,37831
1004369,-114680,-108551,38070,314618,165576,-114153,226923,-118418,-114206,67983,232589,37834
1004370,-114662,-108547,38043,314545,165671,-114101,226933,-118384,-114154,67964,232723,37807
1004371,-114640,-108538,38027,314487,165821,-114118,226932,-118362,-114171,67912,232682,37791
1004372,-114634,-108542,37976,314475,165702,-114129,226959,-118352,-114181,67894,232682,37741
1004373,-114631,-108554,37987,314506,165479,-114145,226928,-118408,-114197,67914,232725,37750
1004374,-114684,-108607,37975,314409,165367,-114174,226891,-118476,-114229,67979,232828,37739
1004375,-114746,-108639,37947,314329,165342,-114169,226849,-118527,-114222,67970,232886,37714
1004376,-114789,-108690,37919,314250,165404,-114129,226811,-118561,-114184,67939,232909,37686
1004377,-114799,-108699,37915,314161,165511,-114143,226745,-118581,-114196,67875,232793,37679
1004378,-114822,-108694,37925,314099,165590,-114147,226713,-118551,-114202,67873,232670,37692
1004379,-114856,-108695,37913,314073,165586,-114162,226705,-118526,-114217,67912,232598,37678
1004380,-114904,-108723,37860,314084,165595,-114140,226723,-118502,-114195,67950,232516,37624
1004381,-114889,-108713,37848,314169,165678,-114117,226755,-118487,-114171,67998,232278,37614
1004382,-114862,-108698,37863,314216,165690,-114092,226776,-118471,-114145,68044,232201,37629
1004383,-114855,-108685,37912,314289,165721,-114095,226769,-118488,-114148,68016,232315,37679
1004384,-114834,-108669,37972,314328,165731,-114089,226787,-118475,-114140,67972,232470,37737
1004385,-114784,-108628,38012,314360,165803,-114061,226765,-118455,-114116,67932,232582,37778
1004386,-114752,-108614,37979,314351,165849,-114040,226765,-118427,-114094,67982,232745,37747
1004387,-114687,-108577,37955,314356,165904,-113995,226820,-118376,-114047,68093,232836,37721
1004388,-114654,-108565,37973,314407,165916,-113965,226897,-118320,-114017,68173,232876,37742
1004389,-114647,-108546,38012,314502,165895,-113939,226967,-118294,-113993,68166,232935,37780
1004390,-114621,-108537,38065,314537,165985,-113926,227021,-118258,-113981,68153,232911,37831
1004391,-114601,-108545,38087,314558,166006,-113930,227072,-118259,-113982,68141,232931,37852
1004392,-114597,-108550,38079,314560,165939,-113927,227106,-118263,-113981,68194,233010,37844
1004393,-114613,-108550,38076,314584,165905,-113970,227069,-118296,-114024,68214,233024,37840
1004394,-114624,-108544,38077,314584,165872,-113999,227047,-118311,-114051,68204,232967,37842
1004395,-114650,-108524,38051,314521,165795,-113995,227022,-118308,-114049,68181,232914,37817
1004396,-114663,-108518,38077,314528,165678,-113993,226981,-118306,-114046,68197,232907,37844
1004397,-114639,-108509,38089,314600,165445,-113999,226950,-118289,-114054,68179,232751,37853
1004398,-114651,-108501,38072,314607,165368,-113950,226901,-118259,-114005,68199,232580,37838
1004399,-114673,-108535,38017,314481,165472,-113940,226850,-118278,-113994,68136,232746,37782
1004400,-114683,-108540,38025,314319,165568,-113943,226818,-118278,-113993,68125,232718,37789
1004401,-114670,-108532,37996,314404,165500,-113955,226803,-118248,-114008,68172,232714,37762
1004402,-114654,-108501,37934,314438,165327,-113930,226834,-118229,-113982,68180,232872,37696
1004403,-114642,-108495,37886,314484,165250,-113942,226867,-118210,-113994,68274,232951,37651
1004404,-114659,-108503,37893,314345,165466,-113886,226872,-118208,-113937,68341,233040,37657
1004405,-114663,-108522,37932,314295,165674,-113886,226858,-118215,-113937,68321,233210,37698
1004406,-114663,-108532,38013,314323,165885,-113880,226844,-118259,-113934,68250,233241,37779
1004407,-114625,-108518,38092,314452,166044,-113887,226931,-118301,-113945,68176,233217,37856
1004408,-114604,-108504,38145,314574,166094,-113831,227012,-118274,-113884,68148,233111,37909
1004409,-114535,-108458,38195,314649,166091,-113781,227080,-118210,-113835,68203,232797,37958
1004410,-114500,-108407,38224,314766,166162,-113763,227096,-118179,-113816,68296,232466,37992
1004411,-114492,-108382,38212,314840,166195,-113816,227031,-118187,-113869,68225,232515,37977
1004412,-114477,-108394,38240,314853,166158,-113841,226820,-118229,-113894,68143,232725,38005
1004413,-114508,-108409,38220,314791,166084,-113873,226656,-118252,-113928,68136,232910,37986
1004414,-114565,-108425,38176,314711,165886,-113891,226634,-118286,-113946,68117,233063,37941
1004415,-114645,-108468,38132,314651,165779,-113940,226627,-118337,-113992,68100,233154,37897
1004416,-114715,-108509,38113,314618,165791,-113962,226631,-118365,-114015,68146,233098,37877
1004417,-114794,-108558,38059,314531,165804,-114024,226744,-118391,-114078,68145,232982,37828
1004418,-114822,-108568,38038,314516,165815,-114069,226801,-118439,-114123,68106,232898,37805
1004419,-114825,-108580,38027,314517,165812,-114086,226778,-118469,-114138,68020,232909,37792
1004420,-114842,-108590,37985,314450,165818,-114085,226764,-118466,-114140,68005,232884,37750
1004421,-114806,-108562,37949,314431,165817,-114034,226782,-118477,-114089,68025,232811,37714
1004422,-114807,-108545,37922,314465,165805,-113970,226817,-118496,-114025,68076,232805,37688
1004423,-114772,-108528,37982,314552,165736,-113948,226872,-118498,-114001,67998,232856,37748
1004424,-114716,-108502,38067,314561,165583,-113953,226920,-118469,-114007,68014,232907,37832
1004425,-114647,-108461,38163,314524,165544,-113945,226963,-118451,-113999,68087,232864,37927
1004426,-114637,-108448,38164,314411,165686,-113959,226959,-118404,-114011,68157,232898,37927
1004427,-114627,-108443,38148,314413,165753,-113931,226995,-118352,-113983,68223,232981,37912
1004428,-114610,-108409,38157,314567,165824,-113927,227025,-118326,-113977,68202,232935,37923
1004429,-114579,-108397,38207,314719,165826,-113927,227066,-118293,-113980,68216,232843,37974
1004430,-114558,-108359,38272,314814,165841,-113906,227087,-118283,-113958,68226,232721,38035
1004431,-114536,-108343,38326,314846,165841,-113893,227105,-118286,-113947,68227,232611,38092
1004432,-114516,-108348,38353,314820,165869,-113949,227052,-118281,-114000,68245,232517,38120
1004433,-114546,-108346,38342,314747,165921,-114026,226970,-118335,-114079,68252,232510,38107
1004434,-114590,-108398,38289,314641,165979,-114092,226926,-118387,-114145,68216,232585,38053
1004435,-114640,-108429,38248,314631,165916,-114064,226870,-118386,-114115,68137,232536,38015
1004436,-114668,-108425,38228,314655,165773,-114020,226830,-118404,-114071,68125,232499,37990
1004437,-114715,-108459,38179,314584,165607,-114026,226780,-118442,-114079,68126,232647,37943
1004438,-114749,-108501,38090,314489,165545,-114022,226724,-118490,-114075,68106,232865,37856
1004439,-114764,-108517,38048,314480,165637,-114047,226668,-118492,-114101,68089,232794,37814
1004440,-114749,-108525,38047,314441,165670,-114145,226658,-118473,-114199,68107,232748,37814
1004441,-114742,-108526,38093,314416,165634,-114209,226671,-118471,-114260,68117,232824,37862
1004442,-114723,-108529,38145,314402,165700,-114246,226684,-118482,-114300,68072,232902,37910
1004443,-114719,-108533,38178,314404,165728,-114192,226742,-118439,-114243,68059,232908,37943
1004444,-114727,-108523,38167,314448,165748,-114135,226751,-118439,-114188,68084,233019,37935
1004445,-114741,-108517,38205,314590,165799,-114089,226733,-118456,-114143,68096,233099,37968
1004446,-114723,-108491,38221,314700,165787,-114043,226779,-118448,-114097,68101,233057,37987
1004447,-114651,-108464,38254,314769,165825,-114008,226821,-118425,-114061,68145,233041,38021
1004448,-114594,-108415,38285,314712,165795,-114007,226922,-118387,-114061,68253,233001,38053
1004449,-114588,-108407,38310,314635,165823,-113986,227019,-118364,-114040,68303,233082,38075
1004450,-114553,-108388,38323,314675,165915,-114007,227042,-118359,-114061,68240,233119,38087
1004451,-114553,-108386,38298,314721,165947,-114008,227040,-118364,-114061,68215,233098,38067
1004452,-114568,-108401,38261,314787,165929,-113997,226955,-118386,-114048,68232,233079,38024
1004453,-114592,-108405,38267,314807,165867,-114032,226911,-118392,-114088,68182,233027,38030
1004454,-114624,-108429,38281,314768,165736,-114060,226892,-118437,-114113,68132,232976,38049
1004455,-114640,-108446,38257,314658,165609,-114073,226885,-118452,-114126,68095,232965,38021
1004456,-114623,-108464,38214,314610,165613,-114074,226854,-118470,-114128,68054,232886,37980
1004457,-114658,-108484,38181,314481,165646,-114077,226807,-118476,-114129,68051,232771,37947
1004458,-114695,-108490,38185,314446,165698,-114079,226740,-118502,-114133,68034,232737,37949
1004459,-114715,-108499,38189,314453,165731,-114079,226675,-118516,-114133,67992,232681,37955
1004460,-114722,-108512,38180,314468,165751,-114098,226636,-118499,-114150,67949,232604,37944
1004461,-114721,-108510,38175,314490,165783,-114096,226612,-118497,-114150,67916,232633,37940
1004462,-114736,-108492,38180,314493,165835,-114116,226637,-118495,-114171,67885,232673,37944
1004463,-114694,-108477,38208,314506,165805,-114118,226740,-118486,-114173,67893,232627,37975
1004464,-114620,-108451,38239,314572,165734,-114102,226832,-118467,-114159,67908,232561,38005
1004465,-114600,-108443,38282,314594,165780,-114059,226826,-118448,-114117,67964,232572,38046
1004466,-114597,-108436,38300,314573,165867,-114031,226708,-118433,-114083,68016,232636,38064
1004467,-114564,-108400,38321,314676,165938,-114009,226632,-118398,-114063,68033,232684,38089
1004468,-114558,-108376,38332,314785,165988,-114042,226666,-118398,-114095,68073,232687,38099
1004469,-114577,-108378,38337,314839,165978,-114065,226747,-118387,-114116,68120,232778,38101
1004470,-114578,-108372,38357,314891,165956,-114066,226810,-118381,-114117,68140,232802,38126
1004471,-114581,-108395,38356,314843,165920,-114052,226841,-118370,-114105,68141,232843,38123
1004472,-114578,-108391,38315,314788,165908,-114018,226895,-118380,-114072,68108,232742,38079
1004473,-114582,-108425,38295,314750,165863,-113998,226969,-118390,-114051,68104,232518,38062
1004474,-114614,-108463,38244,314638,165739,-114021,227008,-118414,-114074,68054,232529,38006
1004475,-114630,-108477,38194,314545,165518,-114008,226916,-118398,-114062,68054,232600,37959
1004476,-114645,-108479,38183,314538,165431,-114043,226922,-118434,-114096,67986,232629,37949
1004477,-114703,-108526,38111,314480,165447,-114102,226957,-118482,-114153,67921,232632,37876
1004478,-114772,-108584,37994,314378,165536,-114104,226931,-118494,-114156,67904,232774,37760
1004479,-114787,-108607,37972,314262,165630,-114134,226845,-118505,-114188,67892,232821,37735
1004480,-114811,-108627,38009,314255,165611,-114147,226821,-118500,-114203,67900,232765,37771
1004481,-114829,-108621,38031,314291,165582,-114147,226814,-118479,-114203,67960,232732,37797
1004482,-114846,-108628,38059,314369,165540,-114121,226795,-118452,-114175,68002,232672,37823
1004483,-114800,-108603,38080,314405,165495,-114083,226756,-118419,-114136,68018,232650,37845
1004484,-114774,-108588,38096,314490,165553,-114039,226751,-118382,-114094,68030,232602,37857
1004485,-114763,-108585,38097,314508,165603,-114009,226810,-118355,-114062,68026,232684,37859
1004486,-114741,-108580,38097,314480,165615,-114002,226858,-118350,-114055,68016,232733,37863
1004487,-114709,-108560,38121,314444,165670,-113954,226915,-118317,-114007,68024,232772,37885
1004488,-114700,-108543,38142,314403,165770,-113931,226950,-118291,-113985,68067,232836,37910
1004489,-114716,-108541,38172,314390,165852,-113906,226966,-118263,-113959,68089,232904,37936
1004490,-114701,-108528,38193,314398,165867,-113918,226957,-118253,-113971,68122,232998,37959
1004491,-114707,-108515,38168,314465,165904,-113943,226942,-118271,-113996,68122,232953,37931
1004492,-114684,-108496,38131,314555,165940,-113964,226863,-118291,-114015,68079,232840,37898
1004493,-114688,-108509,38096,314599,165906,-113971,226770,-118296,-114027,68065,232741,37863
1004494,-114736,-108547,38098,314593,165848,-113988,226749,-118321,-114041,68030,232620,37864
1004495,-114783,-108572,38124,314571,165768,-114038,226690,-118376,-114090,67949,232601,37890
1004496,-114810,-108583,38136,314552,165702,-114076,226689,-118426,-114126,67877,232595,37903
1004497,-114861,-108602,38066,314491,165617,-114094,226698,-118443,-114148,67899,232567,37829
1004498,-114880,-108625,38044,314391,165589,-114106,226644,-118440,-114157,67929,232579,37808
1004499,-114861,-108626,37994,314326,165512,-114094,226621,-118424,-114147,67932,232555,37757
1004500,-114879,-108635,37957,314299,165388,-114065,226643,-118394,-114119,67945,232480,37719
1004501,-114899,-108629,37986,314392,165222,-114036,226656,-118365,-114091,67968,232471,37752
1004502,-114883,-108640,37983,314363,165228,-114045,226657,-118367,-114098,67973,232553,37748
1004503,-114843,-108637,37985,314335,165263,-114038,226665,-118333,-114092,67974,232582,37751
1004504,-114831,-108626,37955,314298,165250,-114014,226736,-118297,-114070,68048,232608,37720
1004505,-114783,-108605,37976,314334,165364,-114004,226783,-118280,-114058,67957,232607,37741
1004506,-114755,-108619,37976,314321,165529,-114026,226801,-118303,-114081,67932,232647,37741
1004507,-114707,-108618,38042,314368,165757,-113994,226891,-118331,-114047,67865,232592,37806
1004508,-114715,-108627,38104,314416,165867,-113999,226942,-118317,-114051,67870,232614,37869
1004509,-114735,-108625,38128,314502,165948,-114052,226972,-118321,-114107,67963,232675,37891
1004510,-114723,-108613,38152,314585,165961,-114087,226991,-118321,-114140,68020,232611,37919
1004511,-114734,-108615,38151,314648,165920,-114114,226949,-118319,-114167,68060,232644,37917
1004512,-114759,-108613,38154,314681,165861,-114135,226879,-118328,-114187,68055,232686,37916
1004513,-114839,-108615,38151,314693,165754,-114126,226833,-118322,-114176,68050,232542,37917
1004514,-114873,-108647,38099,314595,165751,-114195,226770,-118291,-114248,68020,232538,37862
1004515,-114884,-108687,38037,314460,165740,-114237,226702,-118316,-114294,67980,232615,37803
1004516,-114887,-108703,37991,314322,165733,-114244,226639,-118337,-114300,67909,232763,37753
1004517,-114902,-108704,37977,314254,165618,-114224,226591,-118351,-114277,67895,232641,37742
1004518,-114852,-108715,37967,314304,165444,-114172,226581,-118379,-114225,67895,232474,37732
1004519,-114892,-108738,37932,314296,165330,-114104,226610,-118380,-114156,67895,232448,37694
1004520,-114915,-108761,37925,314218,165395,-114079,226579,-118443,-114133,67887,232508,37691
1004521,-114927,-108762,37919,314168,165464,-114080,226542,-118471,-114133,67877,232614,37683
1004522,-114918,-108741,37947,314224,165475,-114098,226485,-118480,-114151,67924,232619,37710
1004523,-114909,-108735,37899,314300,165468,-114108,226483,-118473,-114164,67948,232704,37663
1004524,-114884,-108727,37871,314375,165458,-114091,226513,-118449,-114146,67977,232770,37634
1004525,-114855,-108705,37877,314389,165407,-114064,226597,-118413,-114117,68014,232806,37644
1004526,-114848,-108690,37879,314310,165428,-114052,226674,-118368,-114105,68030,232848,37646
1004527,-114780,-108655,37935,314335,165467,-114015,226761,-118336,-114065,68056,232763,37698
1004528,-114734,-108624,37948,314387,165479,-114007,226894,-118327,-114062,68069,232679,37714
1004529,-114690,-108571,37980,314455,165396,-113995,227010,-118313,-114049,67992,232685,37747
1004530,-114661,-108557,38020,314489,165430,-113978,226980,-118304,-114032,67828,232827,37783
1004531,-114682,-108551,38046,314430,165465,-113964,226894,-118284,-114015,67870,232806,37813
1004532,-114724,-108562,38092,314398,165570,-113965,226802,-118289,-114023,67922,232660,37857
1004533,-114778,-108575,38114,314402,165599,-113988,226697,-118312,-114042,67919,232570,37879
1004534,-114842,-108604,38068,314410,165636,-114042,226609,-118376,-114094,67877,232592,37833
1004535,-114895,-108641,38022,314341,165491,-114074,226587,-118391,-114127,67921,232582,37789
1004536,-114909,-108643,38061,314404,165415,-114128,226571,-118417,-114181,67901,232522,37826
1004537,-114946,-108655,38041,314415,165389,-114181,226523,-118458,-114231,67937,232375,37805
1004538,-114963,-108688,37964,314348,165500,-114218,226500,-118501,-114271,67924,232383,37733
1004539,-114954,-108687,37906,314314,165479,-114247,226478,-118514,-114298,67901,232371,37673
1004540,-114960,-108685,37848,314232,165429,-114229,226474,-118508,-114283,67893,232430,37612
1004541,-114958,-108670,37829,314112,165423,-114190,226476,-118490,-114244,67905,232516,37593
1004542,-114959,-108649,37851,314073,165393,-114176,226478,-118483,-114230,67908,232570,37614
1004543,-114930,-108646,37925,314065,165429,-114153,226500,-118486,-114206,67930,232554,37691
1004544,-114910,-108650,37949,314155,165518,-114155,226537,-118477,-114207,67904,232548,37713
1004545,-114874,-108640,37991,314180,165565,-114145,226602,-118483,-114201,67911,232596,37758
1004546,-114852,-108617,38052,314288,165503,-114144,226656,-118470,-114198,67911,232553,37819
1004547,-114808,-108585,38078,314467,165514,-114129,226723,-118447,-114179,67953,232487,37844
1004548,-114784,-108565,38102,314520,165596,-114116,226816,-118428,-114170,68003,232353,37865
1004549,-114724,-108537,38115,314539,165590,-114109,226861,-118399,-114163,68022,232354,37882
1004550,-114722,-108544,38092,314549,165642,-114112,226885,-118391,-114164,67953,232542,37858
1004551,-114727,-108535,38061,314525,165680,-114111,226863,-118411,-114164,67850,232726,37824
1004552,-114728,-108553,38046,314536,165585,-114098,226861,-118404,-114152,67827,232718,37808
1004553,-114773,-108560,38073,314521,165433,-114117,226817,-118428,-114170,67802,232725,37839
1004554,-114827,-108570,38120,314443,165319,-114122,226789,-118446,-114176,67834,232623,37884
1004555,-114840,-108609,38129,314364,165299,-114134,226748,-118495,-114185,67893,232477,37894
1004556,-114874,-108631,38113,314443,165361,-114215,226673,-118548,-114268,67806,232457,37877
1004557,-114903,-108657,38081,314406,165513,-114328,226548,-118610,-114383,67706,232505,37845
1004558,-114929,-108670,38027,314350,165672,-114420,226421,-118623,-114468,67724,232522,37793
1004559,-114957,-108679,38011,314351,165660,-114429,226322,-118631,-114485,67743,232553,37776
1004560,-114942,-108674,38014,314390,165631,-114367,226204,-118616,-114421,67732,232501,37779
1004561,-114910,-108653,38029,314434,165635,-114319,226098,-118581,-114372,67757,232409,37795
1004562,-114908,-108655,38053,314430,165640,-114309,226095,-118588,-114362,67749,232524,37816
1004563,-114924,-108653,38039,314422,165720,-114313,226239,-118567,-114367,67726,232529,37806
1004564,-114938,-108629,38039,314498,165796,-114310,226442,-118538,-114362,67759,232273,37802
1004565,-114910,-108605,38059,314512,165861,-114319,226532,-118502,-114370,67811,232204,37823
1004566,-114898,-108587,38107,314549,165808,-114308,226585,-118534,-114359,67743,232367,37873
1004567,-114863,-108563,38126,314599,165744,-114285,226713,-118526,-114337,67744,232496,37891
1004568,-114815,-108553,38126,314561,165672,-114244,226830,-118498,-114299,67830,232539,37889
1004569,-114758,-108530,38126,314477,165674,-114204,226919,-118465,-114258,67905,232494,37890
1004570,-114727,-108538,38101,314343,165679,-114181,226998,-118404,-114232,67988,232509,37868
1004571,-114732,-108507,38086,314421,165662,-114207,226970,-118434,-114262,67946,232580,37853
1004572,-114741,-108513,38095,314465,165631,-114216,226909,-118458,-114268,67896,232645,37857
1004573,-114794,-108527,38090,314456,165612,-114256,226838,-118500,-114308,67855,232669,37854
1004574,-114850,-108559,38082,314396,165590,-114302,226725,-118540,-114353,67881,232688,37848
1004575,-114899,-108609,38015,314371,165546,-114327,226632,-118579,-114381,67860,232768,37778
1004576,-114904,-108612,37953,314406,165551,-114352,226569,-118597,-114403,67791,232758,37718
1004577,-114927,-108638,37916,314329,165486,-114357,226544,-118601,-114410,67737,232700,37681
1004578,-114967,-108640,37891,314289,165509,-114375,226516,-118606,-114427,67744,232629,37654
1004579,-114973,-108637,37898,314284,165546,-114409,226454,-118623,-114462,67730,232578,37663
1004580,-114954,-108644,37930,314282,165452,-114403,226466,-118612,-114455,67706,232473,37695
1004581,-114920,-108630,38011,314325,165420,-114370,226489,-118601,-114423,67655,232361,37776
1004582,-114914,-108624,38024,314341,165485,-114325,226488,-118590,-114378,67645,232275,37788
1004583,-114884,-108625,38028,314335,165584,-114295,226511,-118570,-114349,67694,232181,37793
1004584,-114858,-108616,38041,314381,165667,-114259,226434,-118566,-114310,67710,232273,37806
1004585,-114877,-108611,38051,314388,165646,-114239,226461,-118544,-114293,67761,232443,37817
1004586,-114870,-108595,38062,314411,165545,-114226,226573,-118521,-114277,67803,232443,37826
1004587,-114808,-108558,38083,314471,165431,-114198,226643,-118488,-114253,67839,232485,37846
1004588,-114768,-108519,38124,314585,165368,-114219,226724,-118449,-114271,67845,232442,37890
1004589,-114767,-108519,38139,314630,165358,-114233,226818,-118421,-114285,67856,232542,37904
1004590,-114785,-108534,38134,314552,165471,-114260,226833,-118430,-114313,67881,232765,37898
1004591,-114809,-108557,38129,314563,165501,-114240,226784,-118424,-114293,67863,232834,37896
1004592,-114833,-108569,38105,314508,165537,-114209,226783,-118444,-114264,67874,232734,37868
1004593,-114848,-108585,38058,314437,165575,-114239,226864,-118506,-114291,67815,232626,37820
1004594,-114848,-108622,38029,314385,165624,-114279,226785,-118565,-114333,67720,232579,37795
1004595,-114809,-108625,38047,314420,165493,-114281,226696,-118554,-114336,67640,232330,37811
1004596,-114818,-108646,38031,314341,165498,-114285,226686,-118552,-114338,67662,232128,37797
1004597,-114848,-108682,37984,314273,165632,-114318,226606,-118592,-114374,67656,232003,37747
1004598,-114931,-108712,37963,314198,165619,-114338,226556,-118607,-114395,67671,232150,37723
1004599,-114999,-108730,37968,314146,165576,-114353,226537,-118615,-114408,67697,232216,37730
1004600,-115016,-108716,37965,314160,165476,-114364,226489,-118640,-114418,67721,232273,37730
1004601,-114988,-108708,37963,314238,165401,-114364,226474,-118681,-114415,67714,232350,37726
1004602,-114995,-108711,37951,314284,165370,-114402,226528,-118682,-114455,67657,232438,37714
1004603,-114964,-108720,37906,314273,165359,-114377,226604,-118662,-114426,67739,232459,37673
1004604,-114929,-108717,37843,314175,165435,-114398,226650,-118599,-114449,67787,232539,37613
1004605,-114852,-108690,37866,314224,165513,-114442,226736,-118554,-114493,67704,232504,37629
1004606,-114843,-108675,37881,314276,165618,-114432,226745,-118539,-114489,67618,232527,37643
1004607,-114784,-108652,37920,314308,165693,-114372,226811,-118508,-114427,67660,232446,37684
1004608,-114761,-108646,38004,314346,165660,-114358,226855,-118449,-114413,67660,232482,37770
1004609,-114770,-108655,38069,314317,165724,-114355,226854,-118436,-114409,67642,232658,37835
1004610,-114798,-108672,38043,314192,165729,-114344,226846,-118426,-114399,67786,232848,37810
1004611,-114806,-108660,37932,314174,165653,-114326,226867,-118402,-114379,67860,232862,37692
1004612,-114831,-108661,37906,314255,165559,-114343,226885,-118419,-114399,67867,232751,37669
1004613,-114856,-108670,37905,314370,165321,-114313,226886,-118457,-114365,67815,232656,37673
1004614,-114886,-108685,37923,314419,165241,-114350,226810,-118542,-114403,67732,232617,37686
1004615,-114934,-108742,37863,314284,165315,-114347,226732,-118573,-114400,67835,232527,37628
1004616,-114942,-108763,37844,314329,165408,-114378,226652,-118621,-114434,67824,232428,37608
1004617,-114976,-108801,37838,314344,165488,-114409,226577,-118671,-114465,67738,232365,37606
1004618,-114991,-108814,37848,314343,165581,-114395,226491,-118694,-114448,67725,232179,37612
1004619,-115017,-108822,37841,314298,165566,-114390,226452,-118696,-114441,67716,232149,37608
1004620,-115015,-108832,37865,314264,165542,-114382,226429,-118693,-114436,67650,232237,37630
1004621,-115020,-108838,37870,314179,165508,-114370,226443,-118679,-114424,67611,232418,37636
1004622,-115000,-108836,37866,314139,165513,-114378,226414,-118667,-114429,67567,232546,37627
1004623,-114995,-108854,37861,314177,165543,-114377,226418,-118653,-114427,67600,232612,37628
1004624,-114977,-108820,37863,314257,165588,-114384,226461,-118632,-114437,67636,232586,37629
1004625,-114940,-108815,37867,314366,165633,-114331,226544,-118587,-114389,67725,232401,37628
1004626,-114911,-108789,37865,314424,165603,-114300,226587,-118584,-114355,67756,232387,37631
1004627,-114907,-108785,37890,314447,165540,-114257,226610,-118563,-114310,67836,232630,37656
1004628,-114895,-108784,37961,314483,165497,-114234,226664,-118548,-114287,67881,232700,37726
1004629,-114873,-108765,37969,314482,165494,-114203,226746,-118517,-114256,67932,232746,37732
1004630,-114848,-108755,37963,314413,165538,-114188,226798,-118522,-114243,68001,232703,37729
1004631,-114840,-108746,37964,314400,165528,-114172,226812,-118495,-114225,68020,232673,37729
1004632,-114855,-108770,37934,314418,165515,-114195,226808,-118492,-114250,67986,232687,37696
1004633,-114864,-108769,37903,314337,165494,-114224,226786,-118514,-114276,67972,232656,37669
1004634,-114874,-108793,37931,314171,165466,-114251,226767,-118522,-114303,67880,232576,37696
1004635,-114900,-108798,37921,314132,165463,-114296,226728,-118537,-114348,67816,232505,37687
1004636,-114967,-108842,37870,314180,165573,-114337,226645,-118576,-114391,67769,232485,37636
1004637,-114995,-108857,37823,314200,165604,-114354,226548,-118624,-114407,67711,232448,37587
1004638,-115023,-108848,37811,314251,165612,-114359,226488,-118641,-114414,67648,232390,37578
1004639,-115047,-108838,37816,314278,165557,-114357,226436,-118643,-114409,67638,232340,37581
1004640,-115035,-108837,37831,314297,165482,-114376,226406,-118655,-114430,67629,232306,37597
1004641,-115006,-108813,37893,314294,165377,-114375,226412,-118616,-114429,67623,232309,37658
1004642,-114970,-108786,37915,314323,165360,-114367,226410,-118581,-114419,67631,232213,37679
1004643,-114952,-108798,37930,314282,165307,-114316,226518,-118528,-114369,67729,232162,37695
1004644,-114939,-108796,37913,314285,165258,-114296,226632,-118525,-114350,67759,232300,37679
1004645,-114914,-108804,37921,314349,165310,-114308,226649,-118548,-114361,67775,232431,37686
1004646,-114908,-108796,37938,314347,165377,-114295,226678,-118526,-114350,67825,232424,37701
1004647,-114848,-108777,37994,314396,165480,-114285,226748,-118522,-114340,67858,232418,37758
1004648,-114824,-108754,38048,314403,165577,-114252,226776,-118538,-114305,67878,232457,37813
1004649,-114768,-108726,38060,314304,165510,-114191,226817,-118502,-114245,67904,232583,37824
1004650,-114718,-108680,38050,314230,165413,-114132,226812,-118455,-114182,67964,232650,37816
1004651,-114707,-108646,38074,314270,165267,-114099,226819,-118439,-114151,67988,232602,37837
1004652,-114792,-108673,38038,314235,165444,-114144,226783,-118476,-114197,67954,232704,37802
1004653,-114854,-108708,37979,314263,165539,-114193,226706,-118514,-114246,67909,232701,37745
1004654,-114888,-108727,37964,314268,165594,-114259,226631,-118562,-114312,67819,232688,37729
1004655,-114938,-108779,37925,314282,165635,-114313,226551,-118619,-114365,67741,232737,37693
1004656,-114977,-108810,37881,314253,165651,-114312,226551,-118651,-114364,67727,232759,37643
1004657,-115011,-108825,37829,314193,165628,-114312,226583,-118666,-114365,67737,232558,37593
1004658,-115051,-108829,37808,314179,165568,-114329,226556,-118669,-114382,67778,232523,37572
1004659,-115041,-108816,37831,314228,165579,-114319,226506,-118678,-114370,67676,232363,37598
1004660,-115021,-108805,37869,314268,165536,-114301,226485,-118652,-114353,67646,232226,37632
1004661,-114962,-108785,37923,314267,165539,-114282,226426,-118618,-114336,67629,232152,37688
1004662,-114979,-108779,37941,314230,165458,-114286,226347,-118601,-114340,67713,232386,37705
1004663,-114981,-108778,37946,314261,165296,-114266,226390,-118582,-114319,67828,232486,37712
1004664,-114946,-108746,37984,314307,165190,-114275,226499,-118568,-114330,67816,232578,37751
1004665,-114951,-108733,37980,314363,165260,-114263,226597,-118559,-114316,67855,232586,37744
1004666,-114883,-108711,37972,314487,165297,-114248,226584,-118535,-114301,67857,232474,37736
1004667,-114802,-108647,37977,314602,165362,-114232,226615,-118506,-114287,67747,232510,37740
1004668,-114753,-108613,37972,314532,165464,-114199,226751,-118480,-114253,67727,232505,37735
1004669,-114771,-108621,37972,314413,165565,-114121,226891,-118473,-114175,67816,232488,37737
1004670,-114781,-108625,38029,314390,165635,-114111,226911,-118468,-114165,67883,232555,37797
1004671,-114790,-108641,38103,314431,165574,-114129,226857,-118487,-114184,67920,232622,37868
1004672,-114825,-108661,38144,314415,165610,-114148,226813,-118542,-114200,67922,232641,37910
1004673,-114845,-108663,38126,314411,165668,-114186,226778,-118592,-114234,67912,232539,37888
1004674,-114847,-108677,38107,314440,165721,-114223,226709,-118643,-114275,67856,232340,37871
1004675,-114898,-108698,38061,314433,165756,-114260,226638,-118655,-114313,67793,232261,37823
1004676,-114961,-108743,38037,314373,165785,-114268,226582,-118675,-114319,67763,232352,37801
1004677,-114978,-108762,38021,314379,165739,-114322,226506,-118702,-114376,67707,232410,37785
1004678,-114965,-108768,37990,314343,165712,-114406,226502,-118700,-114460,67694,232384,37755
1004679,-114974,-108784,37953,314266,165690,-114470,226469,-118672,-114522,67710,232425,37717
1004680,-114989,-108795,37949,314211,165613,-114519,226482,-118622,-114573,67715,232433,37712
1004681,-114996,-108773,37983,314245,165547,-114563,226499,-118626,-114615,67713,232512,37748
1004682,-114994,-108762,38002,314320,165575,-114489,226486,-118602,-114543,67703,232460,37766
1004683,-114985,-108759,38039,314263,165641,-114402,226507,-118598,-114455,67685,232527,37804
1004684,-114976,-108740,38064,314195,165624,-114310,226550,-118585,-114364,67722,232621,37832
1004685,-114959,-108714,38056,314285,165578,-114224,226572,-118564,-114277,67791,232635,37822
1004686,-114940,-108701,38049,314371,165584,-114223,226550,-118560,-114275,67804,232712,37814
1004687,-114868,-108659,38077,314395,165667,-114203,226612,-118568,-114254,67826,232797,37845
1004688,-114812,-108638,38124,314417,165709,-114194,226644,-118544,-114246,67842,232765,37890
1004689,-114785,-108618,38166,314465,165678,-114128,226666,-118484,-114182,67878,232745,37928
1004690,-114772,-108597,38242,314629,165665,-114102,226671,-118467,-114158,67867,232605,38006
1004691,-114788,-108595,38210,314704,165642,-114082,226734,-118482,-114134,67865,232567,37975
1004692,-114796,-108608,38141,314660,165652,-114071,226750,-118494,-114125,67886,232554,37903
1004693,-114837,-108637,38062,314621,165672,-114092,226747,-118530,-114146,67868,232546,37827
1004694,-114877,-108655,38024,314586,165679,-114138,226701,-118570,-114192,67785,232548,37790
1004695,-114888,-108669,37961,314518,165652,-114136,226695,-118586,-114191,67812,232357,37728
1004696,-114891,-108688,37934,314430,165631,-114198,226658,-118604,-114250,67893,232316,37698
1004697,-114917,-108711,37925,314371,165491,-114223,226601,-118602,-114275,67870,232359,37693
1004698,-114970,-108727,37974,314323,165447,-114257,226547,-118627,-114313,67797,232408,37735
1004699,-115009,-108723,38009,314242,165398,-114262,226538,-118638,-114317,67754,232409,37773
1004700,-115015,-108740,38020,314210,165342,-114265,226522,-118640,-114321,67722,232443,37784
1004701,-115028,-108738,38035,314237,165249,-114242,226567,-118619,-114295,67706,232464,37798
1004702,-114995,-108728,38024,314298,165158,-114153,226622,-118575,-114203,67773,232331,37790
1004703,-114977,-108719,38020,314325,165126,-114130,226652,-118551,-114181,67824,232403,37783
1004704,-114940,-108693,38021,314312,165218,-114163,226657,-118528,-114218,67796,232589,37788
1004705,-114911,-108690,38028,314339,165363,-114159,226650,-118514,-114216,67754,232632,37789
1004706,-114911,-108672,38024,314355,165502,-114158,226627,-118489,-114210,67743,232639,37790
1004707,-114916,-108655,38052,314409,165597,-114156,226634,-118490,-114209,67826,232799,37818
1004708,-114914,-108644,38061,314493,165662,-114164,226633,-118536,-114216,67973,232878,37827
1004709,-114897,-108626,38073,314537,165678,-114131,226594,-118505,-114184,68088,232910,37835
1004710,-114862,-108611,38053,314494,165691,-114085,226652,-118489,-114139,68120,232905,37814
1004711,-114845,-108622,38067,314500,165703,-114075,226771,-118456,-114126,68025,232740,37832
1004712,-114797,-108595,38121,314573,165678,-114067,226820,-118431,-114120,67950,232362,37887
1004713,-114827,-108619,38136,314521,165641,-114098,226790,-118433,-114151,67891,232356,37901
1004714,-114875,-108652,38108,314430,165612,-114164,226702,-118475,-114216,67793,232622,37869
1004715,-114907,-108680,38079,314382,165503,-114209,226599,-118500,-114265,67786,232679,37842
1004716,-114945,-108709,38011,314260,165606,-114201,226513,-118508,-114254,67840,232661,37775
1004717,-114974,-108741,37983,314235,165675,-114243,226418,-118556,-114293,67804,232635,37748
1004718,-114964,-108775,37964,314250,165713,-114241,226267,-118581,-114297,67837,232551,37729
1004719,-114992,-108791,37932,314241,165713,-114224,226247,-118567,-114279,67870,232366,37696
1004720,-115018,-108770,37890,314243,165642,-114205,226284,-118572,-114258,67840,232305,37654
1004721,-115010,-108762,37890,314241,165516,-114177,226372,-118556,-114232,67831,232330,37652
1004722,-114994,-108764,37876,314223,165412,-114159,226418,-118562,-114211,67846,232530,37641
1004723,-114985,-108762,37885,314280,165392,-114159,226507,-118575,-114208,67845,232669,37653
1004724,-114971,-108763,37885,314331,165418,-114187,226628,-118579,-114240,67842,232646,37648
1004725,-114972,-108737,37949,314288,165518,-114184,226715,-118575,-114236,67890,232660,37712
1004726,-114956,-108715,37997,314250,165542,-114144,226740,-118538,-114195,67921,232629,37763
1004727,-114892,-108695,38073,314278,165422,-114104,226798,-118504,-114158,67978,232728,37835
1004728,-114872,-108690,38057,314377,165437,-114074,226823,-118504,-114127,67994,232810,37822
1004729,-114823,-108674,38031,314484,165513,-114059,226827,-118487,-114113,68019,232792,37794
1004730,-114803,-108652,38018,314562,165561,-114046,226832,-118469,-114098,68020,232727,37781
1004731,-114782,-108643,38060,314590,165583,-114088,226839,-118431,-114140,68023,232596,37823
1004732,-114758,-108622,38055,314554,165506,-114161,226829,-118401,-114215,68028,232532,37817
1004733,-114792,-108658,38034,314542,165507,-114222,226743,-118435,-114278,68002,232580,37798
1004734,-114878,-108698,37950,314463,165578,-114256,226701,-118486,-114309,67946,232666,37713
1004735,-114956,-108739,37869,314368,165560,-114187,226662,-118478,-114240,67932,232608,37634
1004736,-115010,-108761,37830,314359,165602,-114144,226608,-118520,-114194,67902,232508,37595
1004737,-115009,-108757,37797,314322,165628,-114126,226548,-118596,-114178,67813,232431,37561
1004738,-114994,-108775,37784,314332,165639,-114154,226448,-118618,-114210,67782,232402,37547
1004739,-114973,-108783,37780,314348,165599,-114180,226376,-118629,-114231,67757,232361,37542
1004740,-114976,-108768,37830,314353,165532,-114179,226369,-118613,-114231,67732,232241,37596
1004741,-114956,-108761,37892,314286,165429,-114120,226439,-118569,-114175,67711,232180,37657
1004742,-114965,-108755,37919,314209,165398,-114076,226490,-118522,-114130,67726,232175,37683
1004743,-114958,-108757,37929,314189,165509,-114049,226598,-118475,-114102,67652,232158,37693
1004744,-114941,-108743,37941,314272,165535,-114066,226638,-118433,-114116,67631,232164,37707
1004745,-114903,-108717,37958,314330,165571,-114077,226663,-118432,-114130,67706,232199,37723
1004746,-114865,-108692,37985,314314,165643,-114072,226716,-118449,-114122,67763,232090,37747
1004747,-114848,-108672,37985,314301,165644,-114018,226777,-118428,-114070,67919,232175,37750
1004748,-114904,-108690,37962,314412,165624,-114010,226768,-118456,-114062,67924,232571,37726
1004749,-114894,-108659,37997,314426,165562,-113997,226784,-118457,-114052,67986,232710,37759
1004750,-114867,-108678,38000,314360,165470,-114003,226812,-118442,-114054,68084,232887,37767
1004751,-114876,-108703,37994,314377,165494,-114026,226778,-118458,-114078,68102,233013,37760
1004752,-114886,-108717,37948,314348,165592,-114098,226730,-118468,-114152,68104,232986,37711
1004753,-114901,-108748,37956,314325,165592,-114157,226677,-118475,-114208,68079,232943,37720
1004754,-114909,-108737,37983,314354,165489,-114221,226634,-118503,-114273,67992,232850,37748
1004755,-114915,-108753,37993,314361,165306,-114271,226591,-118525,-114324,67957,232811,37755
1004756,-114929,-108762,37944,314387,165252,-114331,226555,-118543,-114384,67949,232846,37708
1004757,-114951,-108773,37903,314263,165170,-114308,226557,-118535,-114361,67962,232751,37666
1004758,-114982,-108769,37904,314147,165196,-114289,226550,-118519,-114340,67995,232540,37671
1004759,-114993,-108796,37882,314074,165286,-114209,226545,-118537,-114260,67880,232500,37649
1004760,-115006,-108802,37861,314133,165271,-114151,226507,-118538,-114204,67820,232400,37627
1004761,-115027,-108810,37838,314144,165358,-114101,226535,-118525,-114153,67862,232302,37602
1004762,-115056,-108806,37810,314250,165472,-114144,226526,-118557,-114199,67798,232446,37572
1004763,-115032,-108779,37841,314373,165545,-114175,226539,-118578,-114229,67769,232450,37608
1004764,-114989,-108728,37862,314393,165494,-114182,226616,-118569,-114233,67765,232446,37627
1004765,-114939,-108706,37846,314340,165509,-114132,226674,-118542,-114188,67803,232560,37609
1004766,-114922,-108695,37901,314368,165608,-114104,226645,-118536,-114159,67802,232577,37665
1004767,-114875,-108665,37963,314413,165665,-114058,226685,-118511,-114107,67866,232498,37727
1004768,-114823,-108644,37965,314390,165595,-114015,226784,-118494,-114068,67904,232600,37731
1004769,-114797,-108619,37980,314393,165718,-114020,226785,-118473,-114074,67871,232681,37742
1004770,-114778,-108594,38035,314457,165837,-114101,226768,-118454,-114154,67812,232623,37800
1004771,-114754,-108588,38080,314540,165957,-114156,226750,-118445,-114209,67757,232506,37845
1004772,-114769,-108625,38110,314587,166004,-114194,226724,-118461,-114249,67772,232400,37876
1004773,-114813,-108639,38138,314589,165973,-114186,226656,-118533,-114237,67795,232327,37905
1004774,-114893,-108674,38132,314512,165910,-114167,226547,-118581,-114222,67811,232421,37897
1004775,-114976,-108699,38113,314462,165764,-114163,226553,-118617,-114217,67779,232423,37876
1004776,-115047,-108721,38073,314502,165658,-114195,226589,-118693,-114248,67775,232539,37841
1004777,-115064,-108721,37998,314458,165564,-114238,226534,-118716,-114291,67757,232509,37766
1004778,-115044,-108721,37953,314316,165438,-114253,226478,-118661,-114308,67792,232554,37716
1004779,-115001,-108755,37894,314227,165277,-114246,226502,-118620,-114300,67769,232620,37657
1004780,-114978,-108752,37873,314190,165167,-114222,226562,-118575,-114274,67768,232483,37639
1004781,-114954,-108744,37903,314179,165138,-114202,226526,-118539,-114254,67814,232410,37668
1004782,-114941,-108737,37928,314211,165192,-114181,226377,-118543,-114233,67837,232520,37695
1004783,-114946,-108718,37952,314195,165271,-114173,226328,-118556,-114222,67868,232675,37719
1004784,-114957,-108725,37975,314238,165379,-114182,226460,-118561,-114234,67851,232697,37742
1004785,-114938,-108720,37994,314319,165529,-114231,226548,-118565,-114283,67865,232677,37758
1004786,-114923,-108716,38004,314401,165606,-114230,226522,-118570,-114282,67931,232676,37772
1004787,-114893,-108698,38036,314455,165686,-114165,226517,-118578,-114219,67967,232784,37802
1004788,-114852,-108694,38029,314490,165725,-114113,226629,-118562,-114167,67950,232795,37792
1004789,-114831,-108696,38044,314495,165755,-114089,226771,-118517,-114145,67972,232746,37808
1004790,-114824,-108662,38063,314482,165801,-114083,226826,-118482,-114142,67997,232744,37828
1004791,-114820,-108657,38069,314505,165767,-114096,226860,-118484,-114150,68015,232668,37835
1004792,-114791,-108673,38068,314492,165760,-114096,226852,-118483,-114150,68026,232560,37831
1004793,-114809,-108678,38046,314497,165773,-114116,226815,-118520,-114170,68038,232417,37811
1004794,-114841,-108687,38035,314498,165811,-114173,226721,-118583,-114226,68004,232383,37799
1004795,-114907,-108698,38015,314430,165742,-114210,226668,-118598,-114262,67932,232419,37783
1004796,-114923,-108683,38034,314375,165530,-114208,226671,-118561,-114260,67907,232388,37797
1004797,-114921,-108688,38006,314348,165357,-114210,226687,-118545,-114263,67896,232256,37771
1004798,-114938,-108694,37982,314290,165289,-114252,226652,-118520,-114305,67879,232251,37744
1004799,-114952,-108698,37934,314249,165331,-114271,226634,-118545,-114325,67793,232288,37699
1004800,-114958,-108709,37929,314171,165435,-114288,226619,-118572,-114342,67698,232358,37692
1004801,-114954,-108701,37943,314188,165492,-114279,226652,-118576,-114332,67719,232272,37709
1004802,-114958,-108706,37972,314271,165501,-114263,226650,-118614,-114316,67753,232356,37736
1004803,-114943,-108718,37969,314353,165595,-114226,226637,-118626,-114277,67673,232418,37736
1004804,-114929,-108703,37957,314422,165563,-114176,226663,-118601,-114230,67777,232399,37720
1004805,-114897,-108681,37962,314478,165540,-114173,226693,-118594,-114226,67866,232520,37726
1004806,-114890,-108664,37943,314454,165562,-114192,226675,-118631,-114246,67917,232722,37707
1004807,-114865,-108636,37988,314462,165591,-114142,226671,-118586,-114195,68014,232811,37755
1004808,-114887,-108620,38012,314457,165575,-114091,226662,-118561,-114145,68106,232961,37775
1004809,-114856,-108606,38015,314490,165534,-114071,226699,-118544,-114126,68137,233086,37785
1004810,-114827,-108595,38069,314558,165526,-114057,226752,-118535,-114109,68142,233063,37835
1004811,-114817,-108568,38118,314603,165605,-114071,226775,-118526,-114122,68045,232945,37881
1004812,-114825,-108562,38129,314634,165743,-114090,226750,-118536,-114144,67945,232812,37894
1004813,-114851,-108596,38160,314649,165775,-114153,226699,-118545,-114205,67890,232728,37925
1004814,-114851,-108634,38120,314614,165793,-114182,226655,-118563,-114234,67824,232597,37886
1004815,-114889,-108665,38065,314558,165734,-114201,226646,-118570,-114256,67842,232530,37829
1004816,-114896,-108681,38067,314527,165723,-114265,226612,-118579,-114322,67810,232484,37831
1004817,-114895,-108690,38072,314517,165686,-114328,226541,-118585,-114384,67759,232461,37837
1004818,-114938,-108718,38061,314502,165657,-114345,226466,-118604,-114400,67757,232492,37825
1004819,-114971,-108695,38028,314459,165538,-114337,226447,-118609,-114392,67724,232574,37792
1004820,-114995,-108703,37981,314347,165458,-114279,226432,-118594,-114334,67741,232646,37746
1004821,-114997,-108696,37918,314264,165448,-114239,226469,-118585,-114291,67813,232691,37683
1004822,-114988,-108714,37890,314249,165469,-114201,226497,-118567,-114254,67895,232701,37657
1004823,-114966,-108723,37891,314239,165466,-114148,226548,-118526,-114199,67963,232668,37656
1004824,-114945,-108744,37919,314306,165526,-114082,226599,-118529,-114133,67983,232602,37684
1004825,-114899,-108731,37948,314378,165541,-114022,226653,-118515,-114071,67927,232679,37715
1004826,-114873,-108695,37980,314385,165502,-113999,226712,-118532,-114051,67868,232718,37747
1004827,-114800,-108656,38043,314528,165627,-114072,226793,-118538,-114124,67900,232653,37810
1004828,-114791,-108646,38053,314533,165773,-114075,226802,-118531,-114129,67948,232698,37817
1004829,-114770,-108627,38060,314577,165745,-114047,226820,-118500,-114098,67969,232787,37822
1004830,-114724,-108604,38131,314636,165656,-114029,226791,-118470,-114082,68011,232711,37894
1004831,-114686,-108600,38136,314580,165705,-114046,226751,-118455,-114099,68086,232610,37900
1004832,-114728,-108636,38083,314521,165748,-114054,226722,-118458,-114108,68139,232610,37851
1004833,-114756,-108665,38048,314511,165765,-114072,226692,-118499,-114123,68055,232634,37813
1004834,-114769,-108675,38036,314533,165758,-114079,226672,-118521,-114131,67951,232430,37801
1004835,-114799,-108710,37969,314492,165725,-114093,226669,-118542,-114145,67917,232315,37736
1004836,-114833,-108716,37963,314466,165646,-114100,226648,-118578,-114154,67892,232324,37725
1004837,-114895,-108731,37959,314436,165563,-114104,226558,-118590,-114159,67869,232377,37724
1004838,-114925,-108757,37933,314360,165569,-114127,226621,-118600,-114180,67854,232251,37697
1004839,-114936,-108785,37935,314362,165581,-114191,226594,-118628,-114244,67844,232169,37699
1004840,-114985,-108806,37900,314345,165581,-114240,226481,-118660,-114294,67828,232439,37664
1004841,-114995,-108819,37907,314325,165517,-114230,226440,-118648,-114281,67809,232631,37672
1004842,-114954,-108813,37912,314321,165464,-114164,226416,-118597,-114216,67854,232570,37679
1004843,-114946,-108799,37914,314335,165441,-114118,226436,-118566,-114173,67887,232617,37677
1004844,-114951,-108799,37906,314313,165460,-114098,226480,-118570,-114150,67908,232796,37671
1004845,-114942,-108771,37887,314329,165471,-114097,226534,-118551,-114150,67937,232890,37652
1004846,-114873,-108752,37857,314320,165498,-114066,226559,-118545,-114119,67983,232862,37621
1004847,-114804,-108729,37889,314311,165556,-114035,226597,-118498,-114086,67946,232909,37655
1004848,-114794,-108703,37930,314283,165652,-114024,226678,-118452,-114080,67892,232939,37692
1004849,-114813,-108701,37958,314318,165711,-114040,226752,-118446,-114091,67958,232976,37726
1004850,-114809,-108695,37972,314343,165709,-114050,226798,-118439,-114103,68041,232936,37737
1004851,-114806,-108700,37973,314406,165694,-114081,226844,-118443,-114133,68043,232883,37738
1004852,-114794,-108702,37962,314375,165671,-114098,226898,-118471,-114152,68020,232803,37727
1004853,-114785,-108689,38002,314417,165676,-114105,226902,-118525,-114158,67957,232524,37765
1004854,-114798,-108698,37987,314427,165672,-114137,226857,-118556,-114189,67887,232338,37753
1004855,-114855,-108724,37959,314385,165677,-114159,226777,-118591,-114211,67830,232278,37725
1004856,-114895,-108732,37940,314329,165564,-114158,226731,-118604,-114210,67813,232325,37705
1004857,-114950,-108730,37896,314238,165365,-114138,226655,-118616,-114190,67805,232386,37663
1004858,-114924,-108736,37876,314224,165231,-114132,226622,-118622,-114188,67709,232475,37639
1004859,-114967,-108774,37838,314196,165175,-114139,226606,-118616,-114194,67741,232419,37602
1004860,-114970,-108780,37795,314185,165228,-114143,226600,-118600,-114197,67809,232228,37558
1004861,-114965,-108776,37792,314244,165302,-114135,226607,-118578,-114186,67840,232037,37558
1004862,-114949,-108746,37834,314381,165340,-114152,226630,-118575,-114206,67718,231978,37599
1004863,-114926,-108748,37828,314396,165339,-114131,226644,-118564,-114182,67759,232008,37594
1004864,-114935,-108762,37825,314376,165356,-114133,226632,-118555,-114188,67787,232272,37592
1004865,-114936,-108761,37838,314373,165427,-114194,226628,-118566,-114247,67798,232552,37605
1004866,-114920,-108757,37829,314236,165540,-114211,226663,-118556,-114265,67909,232594,37598
1004867,-114912,-108736,37840,314268,165662,-114213,226658,-118535,-114260,67986,232654,37607
1004868,-114909,-108731,37873,314307,165756,-114227,226618,-118544,-114282,67917,232931,37641
1004869,-114888,-108708,37875,314355,165806,-114163,226642,-118513,-114218,67852,233016,37640
1004870,-114870,-108690,37878,314408,165873,-114119,226640,-118520,-114172,67865,232970,37642
1004871,-114905,-108698,37896,314434,165867,-114079,226631,-118535,-114130,67910,232898,37660
1004872,-114922,-108705,37966,314496,165818,-114114,226610,-118582,-114167,67894,232861,37735
1004873,-114948,-108709,38022,314503,165779,-114114,226548,-118612,-114164,67937,232635,37788
1004874,-114999,-108718,38029,314483,165799,-114129,226497,-118649,-114183,67902,232414,37798
1004875,-115020,-108720,38009,314434,165734,-114145,226461,-118665,-114201,67822,232315,37773
1004876,-115007,-108740,37944,314399,165592,-114168,226455,-118685,-114220,67845,232300,37711
1004877,-115013,-108771,37922,314376,165417,-114228,226404,-118705,-114281,67771,232418,37685
1004878,-115020,-108795,37912,314326,165349,-114275,226376,-118712,-114324,67722,232474,37680
1004879,-115051,-108814,37899,314249,165288,-114288,226400,-118701,-114341,67772,232370,37662
1004880,-115100,-108827,37897,314188,165331,-114258,226408,-118695,-114312,67785,232284,37664
1004881,-115131,-108834,37896,314162,165354,-114175,226380,-118673,-114231,67738,232337,37663
1004882,-115113,-108837,37902,314176,165339,-114143,226325,-118669,-114195,67757,232421,37668
1004883,-115094,-108819,37916,314267,165387,-114171,226330,-118663,-114226,67745,232456,37680
1004884,-115075,-108788,37922,314337,165376,-114184,226370,-118645,-114238,67718,232484,37688
1004885,-115020,-108758,37957,314414,165446,-114213,226402,-118649,-114266,67718,232506,37723
1004886,-115025,-108749,37960,314429,165483,-114182,226399,-118664,-114235,67808,232521,37726
1004887,-114954,-108702,38006,314452,165503,-114165,226458,-118647,-114219,67890,232468,37772
1004888,-114887,-108680,38028,314496,165410,-114146,226540,-118622,-114200,67862,232543,37794
1004889,-114872,-108656,38096,314583,165321,-114123,226525,-118612,-114175,67902,232620,37859
1004890,-114877,-108653,38091,314522,165323,-114051,226489,-118590,-114104,67942,232783,37857
1004891,-114879,-108684,38027,314378,165399,-114025,226511,-118575,-114081,67978,232871,37792
1004892,-114892,-108717,37982,314325,165451,-114049,226584,-118574,-114103,67945,232830,37747
1004893,-114953,-108760,37958,314331,165492,-114078,226601,-118601,-114130,67881,232737,37720
1004894,-114980,-108778,37969,314362,165551,-114147,226533,-118657,-114201,67827,232619,37733
1004895,-115004,-108806,37956,314350,165613,-114202,226506,-118697,-114254,67747,232476,37720
1004896,-115039,-108823,37942,314267,165621,-114254,226604,-118706,-114306,67698,232385,37706
1004897,-115057,-108836,37903,314204,165569,-114310,226622,-118723,-114362,67654,232299,37668
1004898,-115026,-108827,37881,314142,165444,-114337,226625,-118690,-114392,67692,232207,37646
1004899,-115033,-108818,37854,314077,165351,-114310,226588,-118677,-114367,67746,232119,37620
1004900,-115035,-108839,37812,314053,165399,-114271,226545,-118668,-114326,67779,231992,37577
1004901,-115038,-108838,37832,314132,165362,-114279,226511,-118699,-114333,67750,232092,37595
1004902,-115049,-108831,37888,314206,165336,-114346,226517,-118724,-114396,67678,232288,37653
1004903,-115051,-108823,37895,314219,165414,-114358,226550,-118692,-114409,67691,232293,37660
1004904,-115006,-108832,37874,314199,165447,-114321,226616,-118650,-114372,67743,232297,37640
1004905,-114994,-108834,37916,314295,165489,-114310,226601,-118663,-114365,67686,232506,37682
1004906,-115000,-108835,37959,314365,165469,-114275,226545,-118652,-114328,67703,232665,37723
1004907,-114960,-108789,37977,314431,165528,-114176,226504,-118583,-114230,67811,232621,37744
1004908,-114959,-108771,37982,314453,165517,-114101,226522,-118529,-114154,67957,232539,37747
1004909,-114917,-108777,37975,314460,165619,-114065,226637,-118508,-114117,67965,232509,37741
1004910,-114892,-108742,37975,314530,165653,-114079,226743,-118489,-114130,67895,232367,37742
1004911,-114885,-108714,37943,314577,165689,-114116,226790,-118466,-114166,67893,232265,37710
1004912,-114908,-108718,37875,314530,165646,-114141,226780,-118497,-114197,67917,232421,37640
1004913,-114938,-108740,37829,314424,165449,-114181,226804,-118520,-114231,67907,232600,37598
1004914,-114921,-108744,37828,314326,165184,-114125,226810,-118541,-114178,67969,232495,37592
1004915,-114971,-108762,37874,314201,165091,-114109,226742,-118575,-114161,67937,232501,37636
1004916,-115036,-108804,37860,314079,165209,-114109,226682,-118640,-114158,67837,232714,37625
1004917,-115112,-108838,37834,314162,165280,-114138,226609,-118669,-114192,67786,232592,37599
1004918,-115135,-108877,37840,314203,165255,-114161,226533,-118624,-114216,67787,232493,37602
1004919,-115157,-108900,37811,314101,165295,-114219,226488,-118623,-114275,67774,232599,37576
1004920,-115172,-108891,37811,314077,165181,-114209,226473,-118604,-114260,67803,232638,37575
1004921,-115128,-108885,37806,314113,165112,-114191,226379,-118595,-114244,67828,232740,37570
1004922,-115111,-108892,37775,314146,165238,-114170,226345,-118572,-114221,67819,232764,37541
1004923,-115117,-108906,37775,314196,165369,-114132,226388,-118548,-114185,67787,232744,37541
1004924,-115098,-108900,37794,314313,165492,-114105,226421,-118533,-114158,67805,232697,37558
1004925,-115050,-108859,37817,314382,165593,-114123,226511,-118513,-114176,67831,232612,37580
1004926,-114990,-108839,37829,314365,165636,-114129,226612,-118501,-114179,67848,232554,37598
1004927,-114909,-108784,37835,314360,165653,-114106,226736,-118477,-114161,67842,232565,37599
1004928,-114867,-108745,37862,314433,165685,-114105,226793,-118459,-114157,67874,232498,37627
1004929,-114859,-108733,37926,314487,165784,-114083,226816,-118430,-114136,67926,232410,37692
1004930,-114844,-108727,38003,314487,165882,-114082,226785,-118426,-114134,67983,232385,37768
1004931,-114843,-108740,37993,314436,165908,-114035,226731,-118404,-114090,67982,232427,37760
1004932,-114835,-108749,37981,314447,165916,-114040,226653,-118438,-114091,67923,232527,37748
1004933,-114876,-108785,37978,314442,165846,-114035,226603,-118462,-114089,67935,232552,37747
1004934,-114951,-108819,37943,314354,165795,-114078,226610,-118464,-114130,67892,232587,37713
1004935,-114981,-108847,37912,314295,165702,-114130,226604,-118508,-114183,67751,232716,37677
1004936,-114997,-108869,37868,314245,165616,-114139,226590,-118525,-114189,67701,232811,37636
1004937,-115026,-108895,37833,314236,165573,-114168,226588,-118543,-114219,67703,232679,37596
1004938,-115011,-108897,37808,314235,165516,-114233,226634,-118532,-114287,67743,232547,37572
1004939,-115002,-108891,37821,314196,165423,-114291,226607,-118544,-114343,67756,232512,37588
1004940,-115016,-108894,37831,314109,165344,-114277,226549,-118495,-114328,67822,232570,37598
1004941,-115009,-108888,37838,314067,165340,-114220,226529,-118488,-114275,67865,232583,37603
1004942,-114986,-108879,37848,314109,165333,-114191,226564,-118466,-114243,67897,232520,37616
1004943,-114972,-108870,37845,314184,165324,-114185,226590,-118482,-114240,67906,232526,37612
1004944,-114939,-108849,37826,314199,165342,-114192,226665,-118468,-114247,67994,232562,37592
1004945,-114922,-108821,37800,314223,165384,-114153,226737,-118457,-114204,68034,232565,37568
1004946,-114908,-108798,37786,314196,165475,-114091,226843,-118468,-114144,68049,232480,37553
1004947,-114830,-108755,37805,314165,165485,-113998,226918,-118418,-114050,68122,232402,37571
1004948,-114784,-108731,37872,314237,165462,-113959,226937,-118384,-114010,68067,232434,37636
1004949,-114712,-108701,37915,314287,165433,-113940,226985,-118368,-113990,68039,232396,37683
1004950,-114688,-108693,37915,314332,165442,-113932,226950,-118339,-113986,68066,232463,37680
1004951,-114738,-108721,37876,314342,165504,-113989,226851,-118358,-114041,68008,232738,37641
1004952,-114793,-108729,37815,314420,165551,-114013,226869,-118353,-114065,68011,232642,37581
1004953,-114836,-108744,37771,314445,165538,-114020,226836,-118401,-114071,68038,232526,37539
1004954,-114899,-108795,37723,314425,165448,-114061,226715,-118463,-114115,67999,232725,37491
1004955,-114955,-108833,37712,314385,165343,-114123,226628,-118533,-114176,67924,232926,37477
1004956,-114968,-108844,37754,314314,165252,-114150,226647,-118554,-114202,67899,232877,37517
1004957,-114987,-108870,37727,314188,165281,-114206,226663,-118590,-114258,67827,232854,37496
1004958,-114996,-108898,37711,314154,165301,-114197,226624,-118578,-114252,67821,232757,37483
1004959,-115007,-108909,37668,314129,165370,-114173,226542,-118565,-114226,67836,232657,37433
1004960,-115023,-108897,37651,314105,165421,-114159,226552,-118557,-114211,67834,232546,37415
1004961,-115011,-108893,37646,314105,165476,-114144,226606,-118564,-114200,67837,232450,37410
1004962,-114996,-108889,37646,314065,165466,-114108,226637,-118543,-114164,67858,232457,37411
1004963,-114974,-108861,37685,314138,165414,-114116,226607,-118533,-114169,67881,232492,37450
1004964,-114972,-108845,37708,314210,165390,-114101,226626,-118492,-114151,67910,232521,37474
1004965,-114977,-108807,37742,314224,165469,-114087,226650,-118480,-114141,67926,232571,37507
1004966,-114991,-108809,37720,314200,165546,-114076,226682,-118488,-114129,67940,232695,37483
1004967,-114959,-108779,37773,314207,165619,-114046,226720,-118471,-114097,67985,232756,37540
1004968,-114898,-108757,37797,314223,165588,-114006,226778,-118423,-114057,68011,232708,37562
1004969,-114827,-108734,37865,314257,165526,-113977,226894,-118379,-114029,68067,232581,37631
1004970,-114803,-108706,37869,314220,165467,-113999,226957,-118359,-114054,68112,232597,37636
1004971,-114775,-108706,37898,314242,165438,-114072,226955,-118325,-114126,68076,232564,37664
1004972,-114737,-108690,37934,314323,165372,-114144,226972,-118294,-114198,68044,232339,37699
1004973,-114780,-108707,37921,314384,165310,-114213,226931,-118329,-114262,67958,232356,37686
1004974,-114887,-108748,37900,314371,165359,-114224,226785,-118384,-114274,67798,232514,37667
1004975,-114943,-108779,37870,314285,165472,-114188,226694,-118428,-114240,67708,232462,37637
1004976,-114951,-108817,37793,314216,165589,-114145,226569,-118473,-114197,67709,232489,37559
1004977,-114975,-108826,37752,314236,165625,-114142,226449,-118535,-114195,67610,232466,37521
1004978,-115008,-108850,37688,314235,165559,-114114,226420,-118547,-114166,67631,232440,37457
1004979,-115080,-108869,37611,314194,165455,-114069,226432,-118580,-114122,67709,232460,37376
1004980,-115121,-108896,37578,314140,165408,-114071,226449,-118590,-114125,67776,232462,37346
1004981,-115108,-108926,37575,314090,165390,-114080,226461,-118573,-114134,67851,232498,37341
1004982,-115091,-108939,37592,314051,165393,-114077,226470,-118566,-114132,67894,232596,37356
1004983,-115103,-108947,37635,314085,165366,-114104,226516,-118569,-114159,67947,232673,37401
1004984,-115076,-108949,37667,314169,165373,-114133,226563,-118550,-114189,67992,232657,37434
1004985,-115020,-108932,37708,314219,165411,-114141,226570,-118536,-114191,68035,232685,37475
1004986,-114967,-108905,37739,314245,165340,-114119,226586,-118527,-114170,68021,232748,37508
1004987,-114918,-108866,37791,314304,165253,-114063,226641,-118463,-114114,68039,232790,37558
1004988,-114918,-108852,37813,314367,165277,-114024,226712,-118448,-114076,68051,232787,37578
1004989,-114926,-108847,37785,314275,165457,-113975,226773,-118438,-114027,68082,232818,37549
1004990,-114926,-108823,37779,314242,165451,-113933,226761,-118425,-113986,68084,232902,37547
1004991,-114902,-108807,37812,314282,165444,-113933,226748,-118409,-113987,68044,232866,37576
1004992,-114892,-108811,37843,314285,165389,-113916,226751,-118386,-113971,67972,232724,37609
1004993,-114910,-108827,37811,314199,165362,-113925,226764,-118370,-113981,67865,232660,37578
1004994,-114924,-108841,37807,314175,165408,-113984,226699,-118418,-114036,67860,232441,37572
1004995,-114969,-108878,37758,314170,165543,-114063,226618,-118482,-114117,67835,232351,37525
1004996,-115054,-108907,37724,314218,165578,-114130,226584,-118538,-114181,67752,232412,37488
1004997,-115140,-108933,37648,314198,165538,-114154,226573,-118593,-114206,67732,232436,37416
1004998,-115176,-108942,37565,314142,165517,-114156,226564,-118590,-114210,67762,232401,37334
1004999,-115172,-108957,37541,314121,165385,-114203,226519,-118569,-114258,67775,232411,37307
1005000,-115148,-108969,37557,314125,165261,-114233,226442,-118538,-114287,67833,232419,37319
1005001,-115139,-108974,37589,314169,165150,-114233,226357,-118533,-114288,67862,232534,37355
1005002,-115120,-108985,37642,314158,165154,-114197,226320,-118502,-114249,67908,232546,37407
1005003,-115066,-108952,37634,314038,165242,-114127,226445,-118469,-114182,67924,232348,37398
1005004,-115022,-108920,37663,314029,165241,-114083,226529,-118444,-114137,67917,232338,37428
1005005,-115007,-108903,37689,314130,165278,-114059,226507,-118436,-114113,67901,232432,37454
1005006,-115007,-108923,37677,314087,165293,-114020,226544,-118409,-114076,67916,232535,37443
1005007,-114983,-108912,37730,314107,165309,-114014,226655,-118358,-114067,67915,232554,37497
1005008,-114951,-108885,37792,314190,165418,-113990,226739,-118364,-114043,67894,232442,37558
1005009,-114926,-108874,37835,314283,165617,-113939,226762,-118378,-113992,67947,232187,37600
1005010,-114947,-108865,37853,314317,165694,-113953,226755,-118417,-114007,67901,232380,37620
1005011,-114956,-108876,37825,314274,165637,-113977,226789,-118458,-114030,67889,232574,37591
1005012,-114970,-108897,37803,314211,165507,-113988,226749,-118491,-114039,67953,232730,37570
1005013,-114999,-108914,37757,314260,165415,-114002,226548,-118512,-114057,67991,232782,37524
1005014,-115023,-108923,37701,314186,165366,-114045,226475,-118518,-114098,68013,232773,37466
1005015,-115060,-108950,37652,314024,165276,-114089,226507,-118544,-114142,67981,232787,37419
1005016,-115101,-108988,37645,313925,165188,-114131,226565,-118548,-114184,67970,232862,37410
1005017,-115139,-109017,37573,313857,165160,-114133,226565,-118554,-114185,67914,232793,37338
1005018,-115183,-109019,37559,313892,165207,-114150,226561,-118572,-114205,67884,232602,37326
1005019,-115208,-109035,37554,313833,165262,-114179,226560,-118600,-114232,67854,232533,37320
1005020,-115207,-109044,37563,313894,165252,-114191,226541,-118610,-114245,67778,232514,37329
1005021,-115209,-109055,37584,314028,165242,-114211,226543,-118648,-114262,67766,232529,37347
1005022,-115197,-109058,37570,314016,165237,-114189,226591,-118632,-114243,67816,232528,37337
1005023,-115194,-109028,37608,313999,165270,-114155,226582,-118661,-114210,67856,232599,37372
1005024,-115175,-108993,37674,314044,165262,-114130,226532,-118638,-114185,67883,232612,37440
1005025,-115122,-108967,37757,314136,165230,-114096,226488,-118613,-114148,67906,232628,37526
1005026,-115118,-108944,37818,314255,165247,-114082,226492,-118596,-114133,67893,232622,37584
1005027,-115090,-108933,37841,314344,165326,-114046,226570,-118575,-114100,67907,232610,37608
1005028,-115036,-108929,37863,314427,165352,-114040,226585,-118525,-114093,67949,232589,37627
1005029,-115001,-108886,37882,314506,165295,-114010,226649,-118487,-114064,67917,232620,37648
1005030,-114949,-108852,37926,314483,165283,-114055,226718,-118479,-114108,67855,232695,37693
1005031,-114883,-108824,37940,314484,165215,-114062,226818,-118482,-114112,67812,232556,37707
1005032,-114895,-108830,37922,314422,165311,-114076,226915,-118468,-114129,67834,232265,37685
1005033,-114979,-108864,37876,314350,165519,-114126,226852,-118510,-114176,67875,232164,37643
1005034,-115064,-108907,37856,314330,165539,-114153,226762,-118557,-114203,67880,232123,37621
1005035,-115098,-108937,37851,314330,165627,-114220,226632,-118613,-114274,67807,232129,37614
1005036,-115095,-108939,37878,314322,165669,-114294,226500,-118657,-114343,67629,232326,37645
1005037,-115126,-108963,37870,314223,165650,-114322,226420,-118690,-114375,67619,232388,37639
1005038,-115152,-108978,37849,314174,165630,-114329,226389,-118668,-114381,67688,232284,37614
1005039,-115147,-108982,37831,314163,165522,-114328,226339,-118687,-114381,67701,232302,37598
1005040,-115159,-109004,37816,314166,165473,-114334,226289,-118699,-114388,67689,232412,37580
1005041,-115185,-109012,37825,314168,165484,-114318,226304,-118719,-114373,67702,232493,37587
1005042,-115162,-108985,37854,314159,165532,-114320,226349,-118735,-114374,67653,232512,37617
1005043,-115132,-108942,37860,314169,165542,-114287,226393,-118724,-114339,67687,232489,37629
1005044,-115072,-108922,37849,314195,165542,-114240,226480,-118706,-114294,67729,232434,37617
1005045,-115030,-108907,37868,314230,165570,-114229,226566,-118715,-114284,67765,232461,37636
1005046,-114996,-108861,37910,314332,165514,-114215,226611,-118697,-114266,67780,232387,37676
1005047,-114946,-108810,37942,314455,165452,-114192,226696,-118618,-114245,67892,232200,37706
1005048,-114901,-108774,37949,314544,165467,-114209,226725,-118572,-114263,67895,232249,37715
1005049,-114876,-108773,37979,314533,165430,-114195,226703,-118545,-114246,67858,232503,37745
1005050,-114862,-108759,37992,314489,165388,-114145,226653,-118522,-114200,67869,232720,37758
1005051,-114859,-108789,38004,314407,165406,-114144,226686,-118535,-114198,67867,232794,37769
1005052,-114873,-108797,38001,314344,165478,-114136,226642,-118575,-114189,67801,232902,37766
1005053,-114902,-108811,37930,314323,165551,-114147,226646,-118623,-114202,67681,232868,37694
1005054,-114942,-108841,37895,314250,165561,-114185,226651,-118622,-114237,67600,232828,37662
1005055,-114974,-108835,37863,314267,165466,-114235,226637,-118641,-114288,67575,232729,37629
1005056,-115003,-108815,37865,314307,165346,-114259,226581,-118651,-114310,67658,232619,37631
1005057,-115052,-108826,37860,314294,165219,-114257,226530,-118676,-114310,67723,232560,37623
1005058,-115081,-108830,37864,314274,165229,-114222,226529,-118717,-114275,67764,232403,37628
1005059,-115103,-108848,37850,314201,165202,-114211,226479,-118716,-114265,67789,232375,37614
1005060,-115089,-108860,37851,314234,165122,-114223,226455,-118733,-114279,67757,232454,37613
1005061,-115083,-108881,37857,314303,165029,-114218,226517,-118690,-114268,67733,232465,37622
1005062,-115062,-108894,37861,314322,164913,-114181,226567,-118662,-114232,67832,232491,37624
1005063,-115031,-108898,37848,314167,165054,-114148,226659,-118592,-114200,67876,232448,37612
1005064,-115014,-108869,37868,314131,165334,-114163,226679,-118584,-114217,67913,232414,37634
1005065,-114991,-108858,37898,314217,165582,-114133,226610,-118564,-114188,67906,232428,37662
1005066,-114979,-108844,37889,314244,165638,-114117,226541,-118556,-114172,67890,232602,37654
1005067,-114951,-108833,37873,314279,165678,-114066,226600,-118552,-114119,67948,232757,37636
1005068,-114947,-108816,37882,314356,165739,-114026,226656,-118522,-114080,67996,232744,37648
1005069,-114914,-108788,37926,314427,165813,-113996,226602,-118477,-114048,68060,232704,37691
1005070,-114905,-108773,37978,314450,165849,-113974,226602,-118455,-114027,68060,232714,37744
1005071,-114887,-108745,38009,314523,165866,-114011,226649,-118514,-114064,67993,232704,37773
1005072,-114855,-108743,38020,314516,165774,-114016,226681,-118523,-114068,68022,232560,37785
1005073,-114849,-108746,38007,314345,165605,-114026,226691,-118485,-114079,68047,232592,37773
1005074,-114874,-108773,37979,314284,165464,-114030,226715,-118502,-114083,68007,232572,37745
1005075,-114935,-108795,37952,314247,165430,-114024,226653,-118508,-114074,67964,232536,37717
1005076,-114968,-108813,37907,314240,165485,-114095,226621,-118554,-114146,67907,232626,37671
1005077,-115002,-108836,37885,314320,165404,-114139,226562,-118584,-114191,67871,232548,37652
1005078,-115003,-108854,37856,314300,165335,-114139,226569,-118562,-114190,67854,232488,37623
1005079,-115029,-108864,37873,314272,165285,-114122,226597,-118582,-114178,67837,232374,37639
1005080,-115057,-108852,37881,314289,165367,-114147,226585,-118585,-114199,67804,232294,37643
1005081,-115037,-108823,37929,314284,165346,-114131,226616,-118576,-114184,67719,232270,37695
1005082,-115037,-108806,37952,314297,165408,-114117,226630,-118561,-114171,67669,232298,37717
1005083,-115008,-108802,37955,314295,165519,-114104,226622,-118535,-114159,67659,232356,37723
1005084,-114991,-108792,37949,314330,165595,-114087,226605,-118515,-114136,67703,232420,37712
1005085,-114949,-108767,37918,314409,165613,-114074,226635,-118474,-114130,67761,232471,37687
1005086,-114942,-108726,37911,314480,165540,-114051,226621,-118458,-114104,67765,232536,37676
1005087,-114889,-108697,37919,314557,165443,-114032,226699,-118437,-114089,67804,232659,37682
1005088,-114861,-108670,37949,314536,165395,-113982,226755,-118417,-114036,67939,232700,37713
1005089,-114853,-108656,37981,314483,165337,-113912,226829,-118395,-113965,68057,232702,37744
1005090,-114846,-108675,38005,314430,165284,-113862,226865,-118401,-113915,68149,232812,37772
1005091,-114845,-108705,38030,314355,165460,-113893,226757,-118443,-113948,68129,232962,37796
1005092,-114846,-108712,38084,314391,165521,-113921,226642,-118504,-113970,68052,233059,37850
1005093,-114892,-108743,38108,314460,165518,-113968,226545,-118522,-114018,67995,233012,37875
1005094,-114964,-108760,38087,314415,165535,-113959,226513,-118527,-114009,67980,232841,37850
1005095,-114997,-108772,38029,314379,165546,-113986,226497,-118532,-114040,67955,232674,37791
1005096,-114996,-108793,37950,314297,165556,-114002,226518,-118522,-114055,67928,232681,37717
1005097,-115021,-108809,37922,314229,165545,-114035,226519,-118556,-114088,67849,232665,37684
1005098,-115035,-108816,37904,314188,165610,-114108,226486,-118564,-114160,67830,232599,37670
1005099,-115067,-108823,37897,314197,165642,-114197,226506,-118558,-114250,67836,232515,37661
1005100,-115039,-108821,37916,314214,165632,-114220,226509,-118564,-114275,67812,232422,37679
1005101,-114995,-108803,37960,314241,165643,-114219,226503,-118537,-114272,67805,232316,37723
1005102,-114971,-108791,37968,314227,165624,-114184,226499,-118539,-114237,67817,232413,37735
1005103,-114959,-108773,37965,314253,165647,-114146,226468,-118567,-114197,67823,232576,37731
1005104,-114965,-108748,37951,314336,165572,-114121,226514,-118569,-114179,67849,232700,37714
1005105,-114977,-108731,37973,314413,165551,-114056,226607,-118533,-114110,67868,232690,37736
1005106,-114994,-108736,37979,314431,165591,-114064,226668,-118509,-114117,67967,232679,37747
1005107,-114973,-108726,38051,314515,165644,-114047,226702,-118501,-114099,68051,232677,37814
1005108,-114934,-108687,38079,314544,165635,-114018,226758,-118486,-114069,68079,232731,37844
1005109,-114907,-108655,38054,314595,165650,-113981,226859,-118500,-114036,68100,232740,37817
1005110,-114873,-108642,38053,314599,165610,-113943,226905,-118498,-113994,68111,232778,37820
1005111,-114876,-108652,38078,314583,165610,-113929,226891,-118501,-113986,68087,232817,37844
1005112,-114881,-108658,38121,314594,165659,-113935,226840,-118533,-113990,68026,232735,37887
1005113,-114899,-108670,38146,314612,165662,-113964,226764,-118562,-114019,68027,232586,37911
1005114,-114960,-108677,38152,314558,165584,-113988,226747,-118568,-114043,68029,232396,37919
1005115,-114994,-108683,38161,314589,165483,-114036,226729,-118585,-114089,67929,232270,37925
1005116,-115012,-108708,38163,314544,165473,-114058,226675,-118594,-114114,67869,232319,37927
1005117,-115025,-108737,38140,314493,165449,-114117,226618,-118616,-114167,67844,232315,37903
1005118,-115022,-108730,38160,314525,165490,-114148,226563,-118642,-114199,67778,232210,37924
1005119,-115000,-108718,38115,314474,165432,-114157,226491,-118662,-114211,67721,232237,37880
1005120,-114986,-108709,38031,314418,165434,-114167,226417,-118659,-114220,67732,232329,37796
1005121,-115021,-108729,38002,314336,165398,-114148,226383,-118643,-114202,67774,232535,37769
1005122,-115007,-108721,38000,314345,165326,-114129,226431,-118638,-114185,67812,232564,37766
1005123,-114980,-108709,38039,314368,165344,-114134,226504,-118646,-114191,67831,232533,37804
1005124,-114940,-108694,38062,314345,165413,-114139,226563,-118634,-114191,67832,232546,37827
1005125,-114911,-108687,38075,314399,165348,-114116,226531,-118621,-114169,67912,232685,37841
1005126,-114879,-108670,38057,314331,165383,-114102,226465,-118608,-114152,67949,232894,37826
1005127,-114862,-108650,38105,314345,165507,-114076,226500,-118604,-114126,68011,232860,37872
1005128,-114855,-108616,38130,314366,165588,-114058,226645,-118577,-114114,68016,232768,37896
1005129,-114863,-108619,38172,314443,165609,-114061,226721,-118586,-114114,68033,232807,37932
1005130,-114854,-108611,38204,314454,165660,-114030,226739,-118610,-114083,68014,232824,37966
1005131,-114857,-108619,38229,314519,165701,-114033,226748,-118629,-114089,67947,232772,37993
1005132,-114864,-108640,38207,314553,165738,-114109,226793,-118666,-114161,67852,232750,37971
1005133,-114885,-108652,38120,314577,165827,-114223,226784,-118687,-114275,67766,232715,37883
1005134,-114918,-108639,38049,314573,165860,-114290,226663,-118654,-114341,67780,232543,37814
1005135,-114938,-108659,38014,314511,165819,-114359,226594,-118638,-114410,67828,232383,37782
1005136,-114974,-108679,38012,314417,165759,-114332,226578,-118637,-114386,67791,232415,37780
1005137,-114997,-108717,38064,314377,165727,-114350,226526,-118668,-114402,67593,232462,37828
1005138,-115041,-108737,38110,314409,165694,-114322,226428,-118675,-114372,67544,232378,37875
1005139,-115056,-108740,38101,314455,165615,-114331,226442,-118711,-114385,67519,232256,37866
1005140,-115062,-108754,38077,314454,165561,-114341,226481,-118731,-114393,67543,232249,37844
1005141,-115049,-108774,38102,314426,165594,-114337,226524,-118735,-114389,67539,232214,37865
1005142,-115041,-108771,38092,314334,165541,-114279,226551,-118722,-114332,67616,232309,37860
1005143,-115001,-108767,38089,314304,165442,-114254,226542,-118725,-114309,67657,232462,37856
1005144,-114970,-108749,38113,314314,165312,-114244,226594,-118697,-114297,67719,232583,37879
1005145,-114969,-108728,38163,314394,165312,-114249,226663,-118679,-114302,67837,232505,37930
1005146,-114942,-108718,38171,314470,165367,-114247,226672,-118705,-114295,67902,232418,37939
1005147,-114908,-108714,38166,314474,165531,-114220,226647,-118688,-114273,67931,232522,37932
1005148,-114870,-108681,38154,314475,165634,-114228,226610,-118668,-114281,67916,232676,37919
1005149,-114853,-108672,38151,314526,165643,-114178,226638,-118665,-114231,67943,232747,37915
1005150,-114863,-108664,38157,314611,165635,-114170,226655,-118654,-114223,67948,232757,37921
1005151,-114878,-108668,38145,314585,165594,-114138,226709,-118646,-114192,67932,232761,37912
1005152,-114880,-108680,38145,314561,165543,-114157,226697,-118694,-114213,67954,232766,37910
1005153,-114913,-108674,38132,314543,165379,-114168,226667,-118727,-114221,67965,232796,37896
1005154,-114941,-108714,38060,314487,165367,-114180,226672,-118770,-114230,67937,232700,37825
1005155,-114970,-108761,37998,314387,165401,-114163,226628,-118789,-114216,67906,232623,37761
1005156,-114974,-108764,37983,314328,165350,-114171,226578,-118783,-114223,67908,232539,37749
1005157,-115023,-108780,38021,314329,165307,-114214,226480,-118819,-114266,67870,232527,37785
1005158,-115063,-108797,38052,314316,165316,-114250,226404,-118859,-114303,67785,232604,37819
1005159,-115113,-108793,38053,314205,165391,-114259,226375,-118867,-114315,67735,232601,37818
1005160,-115093,-108780,38051,314090,165420,-114274,226407,-118898,-114328,67706,232594,37819
1005161,-115066,-108791,38028,314089,165405,-114279,226403,-118885,-114330,67713,232610,37790
1005162,-115066,-108754,37964,314180,165408,-114266,226444,-118863,-114320,67706,232610,37729
1005163,-115050,-108753,37945,314294,165387,-114253,226521,-118860,-114306,67740,232623,37710
1005164,-115007,-108740,37941,314309,165318,-114235,226623,-118827,-114288,67821,232582,37703
1005165,-114919,-108704,38008,314371,165233,-114172,226719,-118733,-114223,67907,232275,37774
1005166,-114882,-108668,38064,314381,165197,-114121,226739,-118683,-114175,67918,232198,37830
1005167,-114869,-108671,38085,314376,165397,-114133,226681,-118712,-114187,67852,232555,37847
1005168,-114861,-108671,38071,314350,165615,-114156,226648,-118731,-114206,67874,232724,37835
1005169,-114835,-108656,38065,314424,165717,-114144,226687,-118688,-114198,67889,232694,37831
1005170,-114808,-108630,38079,314471,165752,-114145,226764,-118646,-114197,67904,232509,37843
1005171,-114800,-108611,38077,314548,165781,-114161,226762,-118623,-114217,67895,232425,37845
1005172,-114867,-108643,38141,314593,165730,-114184,226708,-118671,-114237,67887,232529,37905
1005173,-114898,-108659,38170,314621,165755,-114211,226642,-118695,-114265,67819,232405,37935
1005174,-114922,-108693,38195,314608,165792,-114218,226563,-118718,-114271,67748,232198,37964
1005175,-114934,-108681,38178,314596,165780,-114254,226497,-118740,-114307,67650,232138,37946
1005176,-114923,-108674,38161,314606,165762,-114298,226539,-118745,-114352,67612,231945,37926
1005177,-114964,-108698,38090,314538,165550,-114316,226543,-118753,-114368,67669,231957,37854
1005178,-115041,-108747,37999,314447,165460,-114318,226476,-118802,-114371,67670,232340,37764
1005179,-115105,-108800,37953,314335,165469,-114299,226420,-118817,-114352,67663,232517,37716
1005180,-115141,-108823,37935,314325,165544,-114279,226362,-118820,-114330,67731,232495,37700
1005181,-115144,-108827,37950,314302,165598,-114285,226316,-118810,-114340,67790,232550,37715
1005182,-115138,-108840,37954,314284,165622,-114269,226312,-118798,-114323,67825,232645,37717
1005183,-115128,-108843,37970,314292,165660,-114232,226328,-118768,-114288,67867,232647,37740
1005184,-115129,-108834,37968,314353,165668,-114176,226405,-118758,-114231,67856,232730,37734
1005185,-115129,-108816,37964,314421,165624,-114119,226475,-118747,-114175,67878,232834,37729
1005186,-115123,-108803,37976,314451,165575,-114141,226539,-118704,-114194,67914,232845,37742
1005187,-115026,-108755,38026,314488,165570,-114153,226610,-118668,-114204,67947,232860,37791
1005188,-114977,-108743,38053,314476,165537,-114091,226718,-118598,-114142,67978,232823,37816
1005189,-114952,-108721,38046,314511,165542,-114069,226787,-118545,-114123,67990,232864,37808
1005190,-114923,-108714,38046,314452,165583,-114031,226809,-118554,-114085,68002,232914,37807
1005191,-114906,-108717,38031,314395,165572,-114004,226845,-118570,-114058,68019,232947,37796
1005192,-114899,-108720,38021,314378,165452,-114005,226874,-118591,-114061,68022,232911,37786
1005193,-114923,-108749,38018,314332,165370,-114029,226857,-118592,-114082,68065,232811,37783
1005194,-114946,-108753,37967,314257,165346,-114054,226835,-118629,-114107,68060,232709,37735
1005195,-114951,-108752,37941,314236,165342,-114104,226795,-118622,-114157,67909,232603,37705
1005196,-114967,-108741,37903,314194,165342,-114088,226781,-118599,-114142,67821,232480,37668
1005197,-115001,-108751,37875,314131,165244,-114109,226731,-118545,-114163,67864,232368,37640
1005198,-115007,-108771,37888,314042,165165,-114116,226639,-118500,-114170,67926,232319,37653
1005199,-115000,-108762,37912,314090,165198,-114154,226526,-118486,-114202,67863,232226,37678
1005200,-115032,-108774,37906,314149,165183,-114138,226470,-118500,-114192,67846,232266,37673
1005201,-115054,-108788,37903,314177,165192,-114097,226486,-118517,-114148,67858,232301,37666
1005202,-115040,-108777,37906,314192,165179,-114020,226478,-118518,-114074,67923,232282,37672
1005203,-114989,-108758,37912,314289,165163,-114002,226466,-118550,-114056,67986,232321,37674
1005204,-114979,-108773,37903,314273,165253,-114016,226535,-118575,-114068,67989,232511,37668
1005205,-114964,-108744,37925,314282,165447,-113990,226651,-118597,-114045,67964,232442,37691
1005206,-114951,-108717,37917,314307,165591,-113989,226745,-118542,-114040,67982,232259,37678
1005207,-114898,-108677,37954,314382,165672,-113952,226806,-118505,-114004,67937,232306,37717
1005208,-114862,-108644,37977,314349,165714,-113927,226800,-118473,-113980,67896,232451,37743
1005209,-114812,-108611,37992,314370,165720,-113931,226800,-118442,-113983,67991,232479,37755
1005210,-114796,-108600,38028,314465,165744,-113967,226745,-118477,-114023,68027,232571,37792
1005211,-114814,-108601,38109,314558,165709,-113978,226739,-118484,-114033,68000,232495,37874
1005212,-114859,-108609,38142,314574,165715,-113985,226749,-118489,-114039,68011,232427,37907
1005213,-114905,-108644,38092,314547,165589,-114014,226752,-118528,-114070,67947,232585,37857
1005214,-114948,-108670,38012,314440,165438,-114020,226732,-118565,-114072,67912,232780,37776
1005215,-115013,-108703,37927,314290,165445,-114045,226662,-118591,-114099,67967,232870,37691
1005216,-115008,-108711,37882,314279,165416,-114073,226587,-118625,-114125,67987,232861,37645
1005217,-115032,-108720,37864,314302,165407,-114087,226548,-118661,-114139,67939,232791,37627
1005218,-115050,-108731,37848,314326,165418,-114116,226489,-118694,-114166,67884,232807,37610
1005219,-115049,-108736,37862,314282,165469,-114139,226383,-118716,-114194,67849,232794,37627
1005220,-115066,-108743,37912,314243,165494,-114138,226275,-118690,-114193,67876,232751,37678
1005221,-115072,-108724,37966,314264,165529,-114139,226287,-118677,-114191,67833,232718,37733
1005222,-115061,-108706,38001,314336,165551,-114116,226354,-118677,-114166,67811,232623,37764
1005223,-115038,-108671,38005,314387,165576,-114088,226450,-118653,-114142,67821,232559,37774
1005224,-115026,-108651,38004,314376,165686,-114088,226535,-118661,-114141,67840,232657,37773
1005225,-115014,-108653,38025,314371,165731,-114084,226572,-118657,-114135,67893,232821,37792
1005226,-114992,-108644,38083,314442,165753,-114088,226617,-118634,-114141,67882,232767,37845
1005227,-114935,-108617,38117,314525,165774,-114079,226682,-118596,-114132,67879,232765,37882
1005228,-114884,-108577,38121,314542,165741,-114058,226708,-118550,-114109,67930,232794,37886
1005229,-114820,-108546,38141,314553,165732,-114018,226815,-118554,-114069,67955,232756,37906
1005230,-114778,-108530,38166,314623,165690,-113983,226873,-118584,-114038,68013,232695,37929
1005231,-114777,-108534,38188,314679,165644,-113973,226892,-118591,-114029,68027,232591,37955
1005232,-114793,-108523,38238,314660,165622,-113964,226900,-118576,-114016,68055,232399,38005
1005233,-114821,-108545,38220,314562,165546,-113975,226887,-118585,-114029,68088,232393,37984
1005234,-114839,-108554,38233,314542,165423,-114068,226836,-118592,-114121,68054,232316,37998
1005235,-114851,-108530,38253,314572,165349,-114132,226799,-118591,-114187,67970,232129,38019
1005236,-114856,-108543,38214,314559,165371,-114167,226725,-118583,-114220,67914,232129,37978
1005237,-114915,-108577,38094,314450,165340,-114163,226601,-118603,-114218,67856,232414,37859
1005238,-114954,-108587,38064,314435,165467,-114176,226441,-118639,-114232,67755,232493,37828
1005239,-114977,-108602,38067,314411,165565,-114174,226259,-118677,-114226,67712,232540,37831
1005240,-114981,-108618,38061,314399,165560,-114168,226176,-118674,-114222,67706,232605,37823
1005241,-114978,-108601,38071,314468,165537,-114160,226230,-118671,-114213,67739,232554,37837
1005242,-115003,-108599,38079,314465,165514,-114129,226289,-118649,-114180,67774,232584,37842
1005243,-115003,-108593,38133,314425,165558,-114136,226421,-118654,-114192,67725,232647,37896
1005244,-114990,-108599,38135,314401,165563,-114107,226570,-118642,-114159,67790,232658,37900
1005245,-114962,-108599,38158,314397,165615,-114107,226682,-118673,-114154,67871,232667,37925
1005246,-114961,-108609,38191,314454,165764,-114155,226727,-118718,-114209,67875,232709,37956
1005247,-114954,-108604,38195,314509,165816,-114121,226772,-118721,-114175,68013,232805,37960
1005248,-114930,-108575,38236,314562,165758,-114055,226770,-118699,-114111,68057,232819,38001
1005249,-114861,-108556,38282,314655,165792,-114045,226731,-118696,-114098,68053,232891,38046
1005250,-114845,-108536,38289,314701,165787,-114002,226660,-118707,-114054,68068,232928,38053
1005251,-114834,-108508,38262,314706,165761,-114014,226650,-118658,-114066,68037,232898,38028
1005252,-114849,-108505,38252,314665,165765,-114056,226699,-118618,-114110,67977,232825,38017
1005253,-114860,-108500,38248,314585,165713,-114117,226768,-118624,-114170,67937,232665,38013
1005254,-114882,-108514,38262,314568,165645,-114184,226723,-118651,-114238,67867,232583,38025
1005255,-114907,-108535,38238,314599,165631,-114260,226644,-118687,-114313,67775,232549,38005
1005256,-114931,-108560,38220,314606,165653,-114271,226553,-118708,-114324,67819,232478,37986
1005257,-114932,-108611,38186,314491,165575,-114243,226455,-118717,-114298,67894,232429,37953
1005258,-114957,-108602,38173,314490,165498,-114210,226429,-118706,-114266,67880,232352,37937
1005259,-114982,-108633,38081,314486,165432,-114193,226478,-118689,-114249,67878,232300,37844
1005260,-114988,-108656,37974,314437,165498,-114176,226472,-118708,-114231,67864,232346,37739
1005261,-114982,-108657,37925,314408,165597,-114169,226461,-118713,-114223,67869,232393,37689
1005262,-114964,-108639,37968,314409,165535,-114139,226479,-118739,-114194,67905,232345,37730
1005263,-114949,-108611,38058,314450,165451,-114137,226535,-118735,-114189,67911,232318,37822
1005264,-114959,-108613,38167,314477,165451,-114115,226550,-118748,-114170,67874,232476,37930
1005265,-114948,-108615,38163,314516,165526,-114097,226557,-118762,-114149,67899,232604,37929
1005266,-114929,-108612,38141,314534,165537,-114057,226541,-118721,-114113,67951,232604,37904
