Timestamp (ms),Ch0 (uV),Ch1 (uV),Ch2 (uV),Ch3 (uV),Ch4 (uV),Ch5 (uV),Ch6 (uV),Ch7 (uV),Ch8 (uV),Ch9 (uV),Ch10 (uV),Ch11 (uV)
1024121,-114635,-107485,38463,316763,165550,-114771,226240,-119342,-114822,65962,232408,38226
1024122,-114638,-107486,38478,316821,165561,-114772,226262,-119325,-114825,65979,232396,38245
1024123,-114588,-107458,38497,316838,165553,-114768,226302,-119314,-114820,65974,232446,38260
1024124,-114550,-107425,38500,316850,165516,-114738,226311,-119285,-114790,66024,232477,38265
1024125,-114483,-107405,38496,316889,165430,-114757,226376,-119234,-114807,66076,232510,38259
1024126,-114406,-107390,38489,316947,165321,-114797,226436,-119192,-114847,66120,232624,38257
1024127,-114362,-107373,38492,317017,165421,-114781,226458,-119168,-114833,66088,232723,38257
1024128,-114333,-107346,38492,316954,165568,-114718,226470,-119130,-114771,66081,232722,38256
1024129,-114331,-107332,38572,317007,165643,-114631,226401,-119108,-114683,66078,232709,38337
1024130,-114346,-107333,38611,317045,165642,-114591,226352,-119116,-114645,66085,232767,38376
1024131,-114368,-107361,38645,317063,165588,-114561,226383,-119164,-114611,66086,232799,38411
1024133,-114448,-107404,38616,317024,165626,-114609,226335,-119231,-114661,66100,232586,38381
1024134,-114518,-107414,38608,316974,165634,-114657,226316,-119256,-114710,66071,232541,38372
1024136,-114537,-107435,38575,316835,165443,-114700,226377,-119258,-114753,66046,232314,38337
1024137,-114553,-107457,38533,316790,165490,-114725,226393,-119270,-114778,66067,232226,38299
1024138,-114562,-107475,38507,316801,165534,-114743,226326,-119317,-114794,66025,232269,38271
1024139,-114569,-107489,38508,316867,165597,-114751,226214,-119346,-114803,65935,232317,38273
1024140,-114583,-107487,38453,316907,165635,-114733,226181,-119347,-114783,65920,232326,38220
1024141,-114618,-107505,38411,316860,165538,-114681,226270,-119317,-114732,65980,232397,38176
1024142,-114629,-107486,38433,316904,165447,-114617,226330,-119285,-114673,66012,232428,38197
1024143,-114594,-107452,38486,316945,165339,-114578,226374,-119255,-114634,66053,232405,38254
1024144,-114521,-107432,38523,317019,165328,-114567,226458,-119209,-114623,66008,232398,38288
1024145,-114507,-107424,38554,317019,165308,-114563,226527,-119206,-114614,66018,232523,38320
1024146,-114495,-107402,38568,317012,165366,-114552,226508,-119190,-114607,66096,232704,38334
1024147,-114461,-107379,38630,317016,165511,-114529,226488,-119161,-114585,66161,232796,38396
1024148,-114423,-107373,38632,317043,165650,-114499,226463,-119138,-114554,66193,232774,38396
1024149,-114383,-107370,38644,317130,165749,-114483,226474,-119131,-114535,66203,232779,38411
1024150,-114364,-107357,38639,317203,165840,-114490,226478,-119139,-114545,66199,232710,38404
1024151,-114372,-107381,38618,317164,165917,-114468,226423,-119120,-114522,66233,232689,38380
1024152,-114402,-107382,38608,317139,165913,-114487,226389,-119145,-114542,66176,232718,38374
1024153,-114433,-107407,38602,317168,165914,-114578,226416,-119193,-114630,66055,232690,38366
1024154,-114460,-107428,38560,317120,165851,-114590,226370,-119212,-114644,66018,232638,38324
1024155,-114477,-107448,38539,317078,165805,-114600,226359,-119230,-114655,66020,232623,38303
1024156,-114496,-107462,38502,317051,165723,-114622,226312,-119246,-114679,66003,232645,38263
1024157,-114519,-107455,38483,317024,165648,-114663,226291,-119239,-114715,66005,232576,38248
1024158,-114539,-107463,38472,317001,165492,-114634,226303,-119226,-114687,66019,232494,38233
1024159,-114554,-107477,38470,316989,165406,-114618,226268,-119232,-114670,65973,232496,38234
1024160,-114541,-107489,38455,316981,165444,-114594,226205,-119215,-114647,65996,232496,38219
1024161,-114554,-107482,38480,316904,165525,-114575,226204,-119202,-114626,66018,232535,38247
1024162,-114519,-107457,38505,316892,165531,-114538,226240,-119174,-114591,66094,232440,38271
1024163,-114531,-107439,38545,316951,165526,-114494,226296,-119147,-114548,66149,232397,38311
1024164,-114498,-107408,38556,316996,165526,-114467,226389,-119120,-114522,66187,232405,38319
1024165,-114489,-107387,38588,317036,165577,-114485,226428,-119122,-114537,66202,232458,38353
1024166,-114461,-107384,38583,317031,165658,-114472,226507,-119109,-114523,66244,232574,38350
1024167,-114408,-107371,38609,317030,165722,-114464,226535,-119095,-114516,66240,232683,38371
1024168,-114358,-107347,38613,317106,165714,-114448,226572,-119063,-114501,66215,232750,38380
1024169,-114293,-107313,38635,317178,165649,-114404,226585,-119044,-114460,66198,232754,38399
1024170,-114263,-107288,38655,317185,165584,-114380,226590,-119007,-114433,66266,232755,38419
1024171,-114257,-107286,38668,316985,165506,-114370,226651,-119003,-114424,66328,232772,38434
1024172,-114256,-107287,38661,316854,165368,-114397,226721,-119014,-114449,66371,232784,38426
1024173,-114279,-107293,38616,316770,165241,-114394,226691,-119033,-114447,66373,232792,38382
1024174,-114325,-107308,38536,316710,165196,-114426,226636,-119067,-114479,66345,232837,38300
1024175,-114368,-107313,38493,316696,165316,-114433,226530,-119059,-114485,66288,232725,38257
1024176,-114372,-107337,38431,316733,165550,-114431,226411,-119066,-114486,66236,232428,38198
1024177,-114406,-107343,38442,316843,165708,-114498,226301,-119100,-114551,66143,232269,38206
1024178,-114455,-107375,38458,316873,165748,-114542,226249,-119153,-114597,66053,232360,38223
1024179,-114481,-107396,38465,316924,165724,-114604,226275,-119174,-114656,66007,232377,38231
1024180,-114470,-107413,38514,317040,165650,-114636,226296,-119159,-114690,65982,232355,38281
1024181,-114465,-107411,38544,317105,165649,-114682,226316,-119151,-114734,66005,232387,38309
1024182,-114465,-107402,38539,317034,165694,-114644,226392,-119135,-114697,66056,232418,38301
1024183,-114451,-107366,38558,317083,165716,-114625,226463,-119144,-114675,66068,232430,38322
1024184,-114416,-107334,38577,317118,165754,-114583,226497,-119152,-114634,66139,232369,38342
1024185,-114389,-107309,38580,317143,165753,-114524,226523,-119132,-114578,66202,232427,38346
1024186,-114367,-107312,38580,317164,165763,-114504,226569,-119136,-114557,66198,232619,38346
1024187,-114332,-107286,38599,317169,165779,-114498,226627,-119134,-114554,66189,232809,38363
1024188,-114280,-107288,38618,317145,165806,-114482,226681,-119110,-114536,66245,232833,38383
1024189,-114240,-107253,38648,317174,165831,-114460,226726,-119085,-114511,66282,232844,38411
1024190,-114223,-107238,38667,317197,165833,-114438,226765,-119072,-114490,66279,232822,38431
1024191,-114223,-107239,38678,317207,165782,-114467,226768,-119081,-114519,66252,232856,38442
1024192,-114242,-107250,38693,317223,165773,-114483,226706,-119115,-114534,66210,232835,38458
1024193,-114287,-107258,38696,317208,165807,-114511,226603,-119137,-114563,66133,232774,38461
1024194,-114342,-107290,38661,317139,165838,-114539,226511,-119153,-114589,66083,232771,38427
1024195,-114337,-107305,38663,317103,165823,-114555,226442,-119161,-114607,66028,232687,38427
1024196,-114344,-107291,38658,317068,165765,-114524,226348,-119157,-114579,66016,232544,38428
1024197,-114365,-107306,38618,317056,165711,-114536,226348,-119138,-114589,66027,232331,38384
1024198,-114386,-107317,38562,317012,165620,-114524,226385,-119129,-114578,66058,232315,38326
1024199,-114409,-107322,38557,317020,165492,-114532,226444,-119134,-114586,66069,232310,38321
1024200,-114403,-107339,38517,316985,165396,-114537,226459,-119127,-114591,66109,232402,38280
1024201,-114415,-107334,38519,316903,165430,-114504,226491,-119103,-114557,66104,232509,38281
1024202,-114387,-107309,38539,316873,165411,-114496,226531,-119111,-114546,66102,232577,38304
1024203,-114332,-107282,38581,316915,165376,-114496,226535,-119116,-114547,66077,232659,38346
1024204,-114302,-107254,38612,316903,165450,-114488,226525,-119094,-114540,66151,232643,38377
1024205,-114289,-107243,38616,316895,165472,-114457,226568,-119048,-114513,66194,232660,38382
1024206,-114273,-107224,38617,316933,165435,-114412,226647,-119029,-114468,66215,232780,38381
1024207,-114244,-107214,38601,316932,165457,-114389,226668,-118993,-114443,66260,232892,38364
1024208,-114212,-107199,38627,316982,165490,-114341,226672,-118972,-114392,66322,232921,38394
1024209,-114225,-107200,38668,316967,165609,-114337,226707,-118957,-114390,66397,232933,38432
1024210,-114225,-107210,38693,316945,165683,-114313,226699,-118950,-114365,66435,232903,38458
1024211,-114257,-107226,38694,316970,165768,-114363,226737,-118983,-114415,66428,232857,38459
1024212,-114257,-107242,38650,316997,165818,-114415,226751,-119026,-114468,66372,232794,38415
1024213,-114263,-107258,38620,316985,165835,-114445,226712,-119049,-114496,66303,232672,38384
1024214,-114300,-107274,38577,317014,165811,-114465,226662,-119084,-114519,66262,232608,38341
1024215,-114350,-107300,38544,317045,165715,-114498,226607,-119096,-114548,66267,232551,38311
1024216,-114372,-107315,38483,317058,165692,-114493,226554,-119128,-114548,66225,232546,38245
1024217,-114381,-107334,38446,317035,165670,-114542,226519,-119131,-114594,66123,232577,38211
1024218,-114384,-107356,38451,316961,165614,-114540,226519,-119137,-114592,66074,232620,38217
1024219,-114394,-107362,38497,316908,165498,-114558,226491,-119154,-114611,66062,232646,38265
1024220,-114416,-107374,38540,316882,165517,-114548,226476,-119143,-114600,66071,232594,38310
1024221,-114414,-107364,38545,316869,165572,-114532,226464,-119122,-114583,66099,232570,38309
1024222,-114411,-107341,38551,316920,165562,-114523,226464,-119109,-114577,66128,232576,38317
1024223,-114374,-107317,38563,316960,165568,-114509,226498,-119102,-114559,66149,232594,38330
1024224,-114353,-107328,38579,316982,165649,-114468,226479,-119082,-114520,66201,232631,38343
1024225,-114329,-107301,38589,317032,165706,-114464,226475,-119063,-114515,66221,232661,38359
1024226,-114297,-107271,38620,317108,165726,-114458,226511,-119063,-114510,66235,232740,38387
1024227,-114260,-107245,38676,317183,165766,-114435,226573,-119066,-114484,66257,232771,38440
1024228,-114247,-107229,38700,317175,165801,-114388,226628,-119038,-114439,66285,232766,38463
1024229,-114215,-107208,38753,317180,165808,-114370,226625,-119015,-114420,66342,232805,38516
1024230,-114203,-107199,38765,317196,165814,-114377,226662,-118992,-114430,66356,232732,38532
1024231,-114213,-107197,38760,317155,165834,-114364,226725,-119003,-114418,66366,232600,38529
1024232,-114240,-107200,38740,317116,165797,-114386,226724,-119015,-114438,66332,232551,38508
1024233,-114253,-107198,38747,317062,165734,-114411,226674,-119041,-114465,66251,232533,38510
1024234,-114259,-107232,38710,316979,165687,-114418,226664,-119071,-114474,66189,232498,38475
1024235,-114243,-107249,38665,317004,165588,-114479,226653,-119097,-114531,66191,232506,38431
1024236,-114256,-107249,38624,317070,165486,-114525,226525,-119106,-114578,66156,232522,38390
1024237,-114278,-107278,38560,316986,165520,-114560,226358,-119140,-114613,66171,232656,38324
1024238,-114299,-107312,38520,316933,165589,-114591,226272,-119171,-114645,66139,232721,38282
1024239,-114365,-107336,38523,316927,165578,-114582,226310,-119173,-114635,66118,232661,38288
1024240,-114413,-107359,38517,316989,165572,-114543,226296,-119167,-114597,66127,232673,38284
1024241,-114396,-107335,38549,317034,165538,-114531,226271,-119134,-114583,66142,232666,38312
1024242,-114363,-107294,38585,317038,165499,-114522,226376,-119124,-114577,66115,232642,38352
1024243,-114316,-107283,38635,317015,165490,-114500,226521,-119104,-114554,66103,232643,38400
1024244,-114287,-107240,38663,317011,165480,-114476,226575,-119073,-114530,66140,232610,38430
1024245,-114269,-107226,38688,317028,165511,-114446,226618,-119044,-114501,66207,232633,38452
1024246,-114259,-107208,38704,317035,165648,-114433,226615,-119035,-114489,66252,232725,38467
1024247,-114247,-107175,38726,317112,165689,-114418,226686,-119009,-114472,66283,232740,38492
1024248,-114209,-107145,38752,317176,165669,-114389,226786,-118972,-114443,66348,232600,38520
1024249,-114202,-107131,38768,317184,165787,-114383,226805,-118956,-114437,66424,232585,38534
1024250,-114202,-107140,38821,317184,165896,-114400,226773,-118960,-114455,66348,232685,38588
1024251,-114215,-107143,38849,317220,165954,-114434,226752,-119009,-114489,66273,232751,38613
1024252,-114251,-107167,38858,317257,165972,-114477,226740,-119059,-114533,66251,232748,38623
1024253,-114294,-107195,38830,317246,165899,-114487,226708,-119074,-114539,66240,232735,38595
1024254,-114353,-107241,38807,317189,165787,-114504,226671,-119093,-114557,66261,232783,38573
1024255,-114398,-107282,38747,317104,165725,-114501,226625,-119109,-114551,66275,232802,38511
1024256,-114433,-107278,38717,317077,165753,-114496,226567,-119099,-114549,66235,232677,38484
1024257,-114474,-107303,38686,317074,165722,-114472,226491,-119096,-114522,66260,232558,38451
1024258,-114485,-107312,38668,317074,165714,-114448,226424,-119096,-114501,66227,232529,38434
1024259,-114494,-107322,38660,317047,165680,-114471,226398,-119124,-114523,66199,232543,38425
1024260,-114473,-107322,38641,317012,165575,-114455,226429,-119126,-114509,66205,232607,38407
1024261,-114395,-107309,38653,316971,165537,-114445,226455,-119117,-114498,66198,232652,38419
1024262,-114355,-107286,38694,317003,165549,-114426,226465,-119085,-114479,66247,232613,38457
1024263,-114297,-107262,38717,316971,165460,-114384,226515,-119036,-114436,66325,232595,38484
1024264,-114285,-107247,38747,316963,165429,-114359,226549,-119032,-114412,66384,232704,38511
1024265,-114309,-107259,38753,316963,165502,-114327,226613,-119014,-114377,66450,232797,38521
1024266,-114300,-107246,38754,317010,165591,-114330,226669,-118994,-114380,66473,232809,38520
1024267,-114241,-107219,38806,317165,165629,-114349,226718,-119002,-114404,66432,232866,38573
1024268,-114197,-107200,38813,317259,165689,-114358,226758,-118992,-114416,66375,232931,38574
1024269,-114175,-107175,38838,317233,165761,-114335,226812,-118967,-114386,66449,232883,38603
1024270,-114132,-107151,38862,317246,165812,-114284,226770,-118936,-114337,66474,232790,38625
1024271,-114119,-107138,38885,317355,165780,-114261,226612,-118939,-114313,66435,232761,38653
1024272,-114145,-107138,38903,317426,165802,-114284,226563,-118984,-114339,66377,232706,38672
1024273,-114215,-107179,38841,317381,165882,-114308,226559,-119011,-114362,66360,232687,38607
1024274,-114277,-107221,38769,317285,166001,-114338,226441,-119056,-114390,66362,232728,38535
1024275,-114299,-107219,38738,317189,165969,-114341,226439,-119033,-114395,66367,232630,38501
1024276,-114309,-107224,38757,317127,165866,-114375,226469,-119021,-114428,66333,232526,38520
1024277,-114320,-107246,38721,317038,165819,-114427,226501,-119057,-114479,66266,232601,38485
1024278,-114342,-107261,38716,316996,165818,-114453,226480,-119098,-114502,66214,232749,38483
1024279,-114321,-107263,38726,316994,165798,-114501,226500,-119125,-114551,66121,232759,38492
1024280,-114304,-107267,38737,317032,165751,-114487,226578,-119131,-114539,66080,232690,38506
1024281,-114299,-107256,38769,317081,165721,-114427,226616,-119096,-114482,66090,232635,38534
1024282,-114277,-107215,38799,317142,165735,-114396,226660,-119060,-114451,66125,232601,38563
1024283,-114237,-107188,38815,317153,165776,-114362,226689,-119036,-114412,66151,232605,38583
1024284,-114201,-107140,38834,317246,165751,-114348,226662,-119025,-114402,66191,232661,38597
1024285,-114152,-107104,38810,317295,165777,-114333,226689,-118997,-114389,66259,232754,38574
1024286,-114122,-107086,38819,317250,165810,-114287,226755,-118960,-114338,66348,232920,38588
1024287,-114087,-107041,38883,317304,165830,-114269,226828,-118940,-114321,66396,233052,38649
1024288,-114038,-107009,38888,317310,165941,-114252,226894,-118905,-114308,66460,233019,38651
1024289,-114013,-106967,38954,317338,165939,-114220,226928,-118892,-114272,66533,233078,38716
1024290,-113996,-106970,38996,317342,165841,-114151,226899,-118828,-114203,66578,233112,38763
1024291,-113999,-106979,39021,317335,165948,-114167,226822,-118841,-114223,66602,233076,38785
1024292,-114060,-107000,38970,317363,166078,-114219,226785,-118893,-114272,66595,233030,38737
1024293,-114085,-107020,38899,317304,166124,-114257,226782,-118923,-114310,66556,233007,38664
1024294,-114112,-107029,38820,317328,166072,-114278,226783,-118958,-114329,66444,232970,38588
1024295,-114137,-107047,38793,317335,165955,-114299,226776,-118996,-114354,66415,232960,38559
1024296,-114154,-107064,38809,317307,165849,-114333,226811,-119038,-114387,66420,232871,38576
1024297,-114157,-107084,38869,317319,165730,-114334,226768,-119053,-114390,66410,232747,38634
1024298,-114188,-107095,38909,317310,165596,-114314,226715,-119053,-114370,66410,232700,38675
1024299,-114192,-107111,38893,317274,165542,-114334,226675,-119070,-114386,66364,232756,38659
1024300,-114170,-107116,38889,317189,165551,-114344,226650,-119048,-114396,66301,232809,38658
1024301,-114172,-107113,38895,317112,165637,-114330,226658,-119022,-114383,66330,232803,38660
1024302,-114157,-107103,38881,317106,165786,-114318,226721,-119017,-114371,66361,232667,38648
1024303,-114148,-107096,38899,317142,165934,-114311,226752,-119021,-114364,66365,232617,38665
1024304,-114126,-107074,38926,317206,165987,-114309,226777,-119014,-114363,66342,232623,38691
1024305,-114103,-107037,38970,317279,165959,-114291,226783,-118996,-114341,66359,232639,38735
1024306,-114079,-107011,39004,317273,165905,-114272,226822,-118982,-114328,66438,232748,38771
1024307,-114056,-106987,39033,317327,165952,-114256,226828,-118983,-114312,66466,232856,38798
1024308,-114064,-106971,39054,317315,166082,-114267,226826,-118967,-114320,66449,232899,38816
1024309,-114043,-106953,39056,317362,166144,-114251,226866,-118955,-114305,66451,232896,38823
1024310,-114018,-106931,39087,317431,166127,-114244,226832,-118948,-114298,66469,232821,38856
1024311,-114011,-106921,39106,317407,166137,-114247,226752,-118942,-114302,66490,232729,38871
1024312,-114008,-106929,39141,317301,166105,-114254,226730,-118941,-114311,66448,232649,38905
1024313,-114058,-106951,39096,317217,166050,-114302,226722,-118985,-114353,66367,232741,38862
1024314,-114122,-106989,39031,317214,166004,-114338,226674,-119031,-114390,66335,232814,38799
1024315,-114162,-107011,38965,317227,165982,-114371,226639,-119066,-114423,66308,232760,38734
1024316,-114170,-107051,38887,317184,165966,-114408,226623,-119083,-114461,66349,232680,38655
1024317,-114188,-107071,38863,317172,165901,-114426,226586,-119096,-114478,66265,232666,38633
1024318,-114194,-107067,38874,317180,165781,-114448,226560,-119121,-114501,66186,232724,38641
1024319,-114229,-107077,38886,317212,165604,-114450,226566,-119117,-114504,66193,232710,38651
1024320,-114220,-107069,38877,317146,165445,-114412,226603,-119088,-114464,66222,232712,38641
1024321,-114204,-107049,38886,317162,165492,-114393,226632,-119064,-114446,66196,232613,38654
1024322,-114164,-107029,38903,317218,165526,-114384,226632,-119030,-114436,66197,232542,38669
1024323,-114128,-107004,38920,317307,165509,-114334,226625,-119003,-114390,66243,232475,38686
1024324,-114153,-106998,38899,317342,165646,-114339,226653,-119025,-114393,66289,232550,38666
1024325,-114162,-106997,38849,317249,165738,-114338,226690,-119007,-114390,66385,232703,38616
1024326,-114162,-106979,38881,317189,165806,-114339,226693,-118996,-114392,66436,232891,38647
1024327,-114127,-106952,38961,317189,165893,-114337,226715,-118988,-114390,66432,233027,38727
1024328,-114102,-106931,38987,317196,165901,-114321,226763,-119006,-114375,66443,233129,38753
1024329,-114077,-106913,39038,317269,165910,-114302,226726,-118973,-114357,66502,233154,38804
1024330,-114062,-106912,39071,317339,165899,-114290,226613,-118965,-114343,66547,233125,38836
1024331,-114080,-106921,39081,317335,165896,-114297,226544,-118955,-114352,66549,233129,38846
1024332,-114125,-106952,39063,317297,165899,-114333,226603,-118972,-114386,66502,233130,38827
1024333,-114130,-106965,39032,317284,165855,-114375,226628,-119007,-114430,66441,233036,38799
1024334,-114161,-106996,38972,317250,165783,-114398,226619,-119020,-114451,66433,232970,38741
1024335,-114187,-107010,38908,317235,165730,-114435,226651,-119032,-114490,66370,232904,38673
1024336,-114208,-107046,38887,317208,165826,-114489,226656,-119090,-114544,66296,232790,38656
1024337,-114235,-107066,38866,317170,165866,-114489,226621,-119134,-114541,66258,232720,38634
1024338,-114249,-107088,38869,317156,165855,-114498,226624,-119164,-114549,66179,232688,38635
1024339,-114261,-107095,38902,317134,165867,-114534,226582,-119183,-114588,66112,232649,38669
1024340,-114259,-107087,38914,317105,165842,-114525,226569,-119153,-114575,66121,232600,38681
1024341,-114254,-107062,38937,317131,165793,-114517,226573,-119110,-114573,66163,232555,38704
1024342,-114231,-107055,38942,317201,165799,-114495,226581,-119087,-114547,66176,232532,38710
1024343,-114210,-107039,38955,317275,165762,-114480,226593,-119060,-114535,66229,232528,38722
1024344,-114183,-107017,38969,317314,165805,-114502,226576,-119042,-114554,66266,232561,38736
1024345,-114162,-106990,38986,317332,165901,-114491,226544,-119040,-114543,66277,232605,38754
1024346,-114101,-106983,38982,317316,165950,-114463,226613,-119038,-114517,66265,232666,38752
1024347,-114085,-106984,38986,317309,165953,-114426,226730,-119000,-114479,66322,232781,38752
1024348,-114103,-106987,38986,317356,165977,-114397,226734,-118992,-114451,66339,232911,38751
1024349,-114105,-106983,38989,317366,165980,-114381,226799,-118951,-114432,66379,232968,38756
1024350,-114113,-106985,38967,317388,165970,-114377,226931,-118958,-114431,66384,232921,38736
1024351,-114102,-106988,38995,317428,165955,-114365,226942,-118976,-114418,66401,232775,38760
1024352,-114081,-106986,39029,317364,165896,-114381,226922,-119013,-114434,66443,232572,38794
1024353,-114092,-106996,39019,317273,165761,-114400,226839,-119048,-114454,66424,232636,38784
1024354,-114130,-107032,38970,317184,165692,-114439,226770,-119086,-114491,66306,232797,38735
1024355,-114163,-107051,38958,317156,165630,-114460,226723,-119103,-114514,66220,232845,38724
1024356,-114204,-107078,38900,317138,165475,-114474,226678,-119102,-114529,66233,232833,38666
1024357,-114246,-107108,38856,317111,165441,-114504,226622,-119103,-114558,66230,232837,38625
1024358,-114260,-107129,38808,317061,165476,-114514,226596,-119095,-114567,66210,232783,38576
1024359,-114277,-107144,38776,317057,165504,-114527,226585,-119090,-114579,66195,232652,38541
1024360,-114275,-107136,38783,317137,165594,-114554,226556,-119113,-114607,66118,232551,38548
1024361,-114269,-107120,38804,317156,165653,-114566,226568,-119107,-114619,66095,232552,38571
1024362,-114269,-107122,38825,317179,165701,-114572,226510,-119112,-114623,66126,232596,38594
1024363,-114258,-107113,38862,317218,165732,-114572,226503,-119104,-114628,66101,232668,38629
1024364,-114254,-107104,38872,317220,165798,-114586,226564,-119096,-114636,66089,232764,38638
1024365,-114247,-107100,38888,317204,165869,-114578,226569,-119062,-114632,66146,232840,38651
1024366,-114210,-107054,38920,317227,165847,-114547,226582,-119048,-114597,66185,232852,38689
1024367,-114166,-107007,38946,317221,165863,-114476,226662,-119010,-114530,66254,232746,38712
1024368,-114145,-106995,38935,317162,165952,-114425,226786,-118986,-114479,66319,232667,38702
1024369,-114111,-106985,38929,317176,166044,-114404,226792,-118990,-114458,66356,232667,38694
1024370,-114099,-106975,38954,317221,166128,-114433,226765,-119029,-114486,66298,232695,38719
1024371,-114107,-107005,38941,317254,166078,-114440,226746,-119040,-114492,66323,232725,38710
1024372,-114119,-107033,38924,317243,165981,-114465,226745,-119043,-114520,66304,232757,38689
1024373,-114160,-107073,38865,317233,165917,-114505,226697,-119072,-114557,66295,232758,38630
1024374,-114205,-107079,38827,317209,165833,-114527,226627,-119094,-114578,66257,232738,38594
1024375,-114209,-107107,38779,317187,165749,-114514,226586,-119087,-114564,66262,232593,38545
1024376,-114245,-107141,38819,317114,165691,-114517,226601,-119081,-114569,66273,232396,38587
1024377,-114253,-107145,38845,317053,165682,-114530,226595,-119112,-114584,66220,232274,38611
1024378,-114277,-107153,38831,317011,165718,-114568,226547,-119166,-114621,66145,232372,38597
1024379,-114297,-107165,38790,317029,165657,-114582,226509,-119180,-114635,66083,232390,38557
1024380,-114313,-107172,38799,317090,165635,-114615,226494,-119221,-114667,66029,232487,38565
1024381,-114327,-107183,38787,317074,165625,-114637,226516,-119215,-114691,66065,232585,38556
1024382,-114333,-107168,38789,317068,165641,-114625,226548,-119194,-114678,66134,232615,38557
1024383,-114327,-107149,38792,317106,165538,-114572,226597,-119159,-114625,66174,232662,38563
1024384,-114275,-107131,38796,317091,165528,-114558,226634,-119135,-114608,66199,232732,38563
1024385,-114233,-107118,38802,317099,165652,-114528,226649,-119131,-114580,66186,232726,38567
1024386,-114199,-107095,38827,317152,165787,-114489,226634,-119110,-114544,66241,232670,38594
1024387,-114150,-107086,38893,317188,165867,-114456,226624,-119097,-114508,66232,232688,38659
1024388,-114120,-107080,38905,317261,165902,-114430,226618,-119059,-114482,66230,232675,38671
1024389,-114104,-107066,38951,317328,165876,-114455,226627,-119047,-114505,66239,232783,38720
1024390,-114096,-107054,38934,317325,165781,-114471,226721,-119038,-114524,66232,232842,38702
1024391,-114112,-107066,38926,317314,165611,-114477,226785,-119037,-114530,66260,232840,38694
1024392,-114111,-107092,38902,317193,165545,-114496,226787,-119047,-114549,66230,232878,38670
1024393,-114164,-107116,38882,317030,165681,-114526,226736,-119097,-114580,66128,232960,38650
1024394,-114235,-107139,38856,316928,165805,-114547,226646,-119130,-114598,66094,232881,38623
1024395,-114270,-107138,38831,317028,165783,-114555,226579,-119150,-114610,66051,232665,38596
1024396,-114259,-107152,38824,317040,165686,-114528,226569,-119160,-114581,66015,232447,38589
1024397,-114282,-107161,38820,317038,165630,-114558,226514,-119198,-114613,65971,232412,38586
1024398,-114320,-107188,38812,316995,165649,-114590,226482,-119225,-114644,65998,232443,38577
1024399,-114348,-107204,38770,316954,165666,-114606,226419,-119238,-114657,66027,232417,38534
1024400,-114346,-107208,38727,316928,165722,-114578,226340,-119230,-114631,66103,232418,38489
1024401,-114331,-107201,38681,316947,165735,-114546,226308,-119208,-114598,66145,232461,38446
1024402,-114320,-107213,38679,316951,165720,-114505,226355,-119184,-114561,66150,232531,38443
1024403,-114313,-107213,38677,316985,165644,-114458,226431,-119142,-114509,66152,232598,38445
1024404,-114295,-107169,38718,317066,165647,-114477,226477,-119128,-114530,66154,232630,38483
1024405,-114253,-107138,38734,317106,165634,-114486,226499,-119121,-114539,66205,232648,38502
1024406,-114202,-107119,38751,317173,165595,-114468,226566,-119095,-114520,66255,232615,38515
1024407,-114154,-107093,38741,317177,165579,-114432,226704,-119073,-114485,66317,232624,38506
1024408,-114147,-107088,38736,317155,165619,-114431,226787,-119051,-114484,66320,232734,38499
1024409,-114117,-107084,38737,317140,165675,-114426,226847,-119040,-114480,66311,232833,38502
1024410,-114112,-107091,38759,317143,165764,-114448,226880,-119075,-114501,66314,232813,38523
1024411,-114129,-107101,38787,317159,165871,-114460,226866,-119087,-114513,66307,232725,38552
1024412,-114165,-107104,38789,317132,165870,-114440,226723,-119088,-114493,66266,232720,38555
1024413,-114163,-107105,38797,317120,165709,-114442,226640,-119072,-114496,66213,232630,38563
1024414,-114193,-107108,38799,317137,165581,-114453,226615,-119085,-114508,66212,232429,38561
1024415,-114239,-107121,38777,317096,165477,-114457,226592,-119090,-114509,66220,232345,38543
1024416,-114297,-107141,38711,316998,165441,-114452,226577,-119096,-114506,66212,232382,38477
1024417,-114349,-107179,38662,316894,165496,-114478,226541,-119110,-114531,66183,232411,38428
1024418,-114346,-107194,38596,316728,165566,-114482,226554,-119115,-114539,66213,232335,38362
1024419,-114356,-107207,38557,316655,165597,-114517,226461,-119163,-114571,66222,232453,38323
1024420,-114356,-107215,38512,316665,165623,-114542,226432,-119152,-114597,66218,232517,38275
1024421,-114335,-107194,38513,316717,165633,-114558,226422,-119138,-114611,66202,232526,38280
1024422,-114343,-107215,38537,316798,165621,-114545,226417,-119109,-114598,66213,232582,38303
1024423,-114319,-107212,38576,316894,165578,-114509,226410,-119096,-114561,66231,232594,38343
1024424,-114305,-107203,38623,317017,165578,-114500,226404,-119105,-114556,66266,232656,38387
1024425,-114310,-107195,38641,317032,165600,-114450,226481,-119071,-114503,66295,232638,38406
1024426,-114258,-107178,38644,317071,165680,-114446,226560,-119053,-114498,66251,232671,38410
1024427,-114233,-107160,38640,317075,165734,-114411,226644,-119035,-114462,66276,232768,38406
1024428,-114227,-107139,38661,317115,165806,-114392,226710,-119019,-114445,66285,232759,38426
1024429,-114170,-107101,38669,317111,165765,-114394,226801,-119012,-114446,66296,232785,38434
1024430,-114154,-107100,38695,317119,165589,-114387,226866,-118989,-114440,66344,232828,38462
1024431,-114186,-107089,38709,317072,165572,-114430,226863,-119016,-114486,66318,232875,38474
1024432,-114234,-107113,38723,316975,165641,-114453,226792,-119030,-114505,66301,232893,38487
1024433,-114252,-107129,38710,316907,165634,-114495,226721,-119050,-114546,66251,232871,38476
1024434,-114281,-107138,38697,316882,165643,-114513,226649,-119097,-114565,66176,232780,38460
1024435,-114282,-107177,38651,316844,165687,-114489,226599,-119113,-114544,66081,232694,38417
1024436,-114308,-107186,38611,316854,165758,-114516,226566,-119134,-114571,66034,232497,38375
1024437,-114336,-107194,38552,316920,165743,-114527,226535,-119175,-114581,66065,232358,38316
1024438,-114351,-107215,38504,316931,165752,-114570,226491,-119189,-114622,66046,232362,38267
1024439,-114365,-107210,38495,316970,165728,-114598,226383,-119187,-114648,65989,232391,38262
1024440,-114371,-107244,38508,316985,165670,-114572,226370,-119166,-114625,66007,232326,38274
1024441,-114372,-107230,38552,317023,165672,-114571,226426,-119171,-114626,66002,232270,38319
1024442,-114368,-107208,38625,317007,165711,-114520,226464,-119133,-114570,65963,232204,38392
1024443,-114349,-107172,38661,317037,165560,-114462,226538,-119072,-114519,66019,232161,38428
1024444,-114350,-107153,38678,317042,165442,-114437,226604,-119044,-114492,66083,232288,38440
1024445,-114324,-107145,38670,316939,165559,-114436,226616,-119066,-114487,66109,232502,38436
1024446,-114274,-107138,38686,316863,165656,-114423,226604,-119069,-114477,66166,232684,38453
1024447,-114249,-107120,38675,316935,165655,-114403,226609,-119050,-114458,66240,232834,38439
1024448,-114216,-107122,38689,316991,165665,-114376,226613,-119016,-114429,66273,232840,38454
1024449,-114181,-107119,38673,316937,165697,-114386,226676,-119005,-114440,66328,232914,38441
1024450,-114158,-107122,38663,316947,165641,-114393,226755,-119007,-114445,66325,232922,38427
1024451,-114154,-107128,38648,317007,165627,-114430,226749,-119030,-114482,66306,232890,38415
1024452,-114191,-107139,38589,317015,165638,-114452,226686,-119056,-114507,66292,232874,38354
1024453,-114223,-107153,38574,317004,165680,-114516,226601,-119069,-114566,66244,232826,38340
1024454,-114216,-107162,38578,317043,165610,-114526,226442,-119070,-114581,66225,232641,38345
1024455,-114203,-107148,38622,317037,165586,-114524,226297,-119026,-114578,66269,232282,38390
1024456,-114238,-107190,38602,316990,165606,-114566,226334,-119056,-114618,66190,232237,38371
1024457,-114317,-107247,38552,316931,165660,-114600,226361,-119115,-114651,66148,232322,38318
1024458,-114364,-107274,38501,316913,165602,-114641,226345,-119143,-114696,66112,232454,38269
1024459,-114378,-107280,38491,316832,165566,-114654,226402,-119151,-114706,66018,232484,38256
1024460,-114399,-107291,38496,316799,165554,-114651,226507,-119171,-114704,65992,232457,38262
1024461,-114407,-107285,38510,316780,165578,-114646,226541,-119184,-114700,66037,232474,38273
1024462,-114429,-107285,38519,316808,165657,-114665,226535,-119199,-114716,66019,232578,38285
1024463,-114400,-107286,38543,316842,165762,-114671,226526,-119194,-114724,66052,232659,38307
1024464,-114360,-107268,38560,316870,165799,-114647,226556,-119186,-114703,66087,232676,38320
1024465,-114327,-107260,38578,316875,165710,-114602,226597,-119143,-114657,66153,232729,38342
1024466,-114261,-107210,38613,316950,165660,-114579,226581,-119106,-114632,66165,232729,38376
1024467,-114206,-107174,38641,317064,165687,-114561,226540,-119063,-114617,66192,232734,38405
1024468,-114172,-107163,38652,317141,165789,-114554,226541,-119045,-114608,66192,232692,38419
1024469,-114152,-107159,38671,317137,165863,-114520,226633,-119042,-114573,66192,232646,38434
1024470,-114153,-107142,38715,317153,165855,-114511,226665,-119038,-114566,66207,232632,38480
1024471,-114166,-107156,38704,317147,165822,-114526,226694,-119053,-114581,66187,232642,38470
1024472,-114209,-107188,38672,317122,165733,-114520,226702,-119048,-114568,66188,232664,38435
1024473,-114256,-107211,38635,317081,165708,-114536,226627,-119050,-114591,66166,232629,38402
1024474,-114318,-107240,38625,317024,165723,-114542,226529,-119048,-114595,66121,232594,38390
1024475,-114356,-107257,38586,316953,165699,-114565,226536,-119066,-114618,66071,232533,38352
1024476,-114354,-107253,38555,316941,165584,-114605,226537,-119082,-114658,66068,232454,38321
1024477,-114365,-107284,38505,316945,165483,-114634,226535,-119105,-114684,66076,232374,38273
1024478,-114365,-107291,38492,316910,165379,-114625,226533,-119130,-114678,66075,232358,38257
1024479,-114419,-107297,38503,316864,165362,-114642,226526,-119153,-114697,66038,232382,38272
1024480,-114401,-107301,38509,316774,165383,-114653,226566,-119177,-114707,66006,232421,38271
1024481,-114401,-107306,38531,316787,165435,-114622,226570,-119161,-114675,66013,232402,38300
1024482,-114386,-107283,38568,316916,165503,-114652,226554,-119155,-114703,65956,232403,38334
1024483,-114353,-107279,38582,316985,165600,-114669,226534,-119153,-114721,65965,232439,38349
1024484,-114333,-107262,38604,317073,165640,-114691,226529,-119125,-114746,65993,232473,38369
1024485,-114328,-107250,38616,317119,165706,-114694,226558,-119115,-114749,65990,232520,38383
1024486,-114338,-107227,38654,317134,165758,-114666,226598,-119087,-114719,66048,232539,38416
1024487,-114337,-107201,38695,317152,165805,-114628,226665,-119064,-114682,66081,232613,38461
1024488,-114301,-107174,38709,317172,165795,-114583,226722,-119043,-114636,66086,232607,38475
1024489,-114244,-107158,38711,317187,165804,-114550,226797,-119043,-114601,66127,232559,38477
1024490,-114203,-107155,38678,317132,165839,-114514,226802,-119033,-114570,66168,232610,38443
1024491,-114189,-107150,38672,317149,165818,-114519,226758,-119036,-114573,66153,232624,38439
1024492,-114200,-107158,38649,317105,165730,-114537,226669,-119038,-114591,66125,232679,38415
1024493,-114255,-107192,38629,317048,165702,-114567,226597,-119037,-114617,66099,232707,38397
1024494,-114318,-107224,38636,317015,165702,-114595,226514,-119081,-114648,66064,232668,38402
1024495,-114332,-107244,38667,317047,165627,-114619,226430,-119091,-114672,66033,232609,38432
1024496,-114351,-107261,38664,317016,165594,-114640,226308,-119106,-114693,66031,232524,38430
1024497,-114389,-107275,38667,316891,165635,-114651,226286,-119120,-114704,66042,232418,38431
1024498,-114414,-107293,38635,316779,165652,-114637,226279,-119100,-114691,66113,232369,38402
1024499,-114426,-107293,38602,316752,165565,-114604,226263,-119094,-114657,66145,232337,38366
1024500,-114426,-107290,38613,316787,165422,-114597,226339,-119118,-114648,66096,232399,38380
1024501,-114418,-107285,38616,316861,165361,-114618,226425,-119137,-114673,66040,232482,38384
1024502,-114402,-107269,38629,316880,165432,-114629,226489,-119161,-114683,65999,232516,38395
1024503,-114380,-107241,38621,316885,165576,-114600,226459,-119128,-114653,66043,232498,38390
1024504,-114331,-107226,38617,316888,165749,-114591,226328,-119062,-114644,66146,232430,38383
1024505,-114308,-107224,38638,316935,165827,-114551,226323,-119023,-114606,66229,232332,38405
1024506,-114296,-107201,38650,317029,165881,-114505,226457,-118981,-114559,66260,232194,38418
1024507,-114297,-107188,38690,317108,165911,-114485,226531,-118986,-114536,66232,232327,38459
1024508,-114306,-107177,38691,317161,165884,-114458,226566,-118996,-114510,66191,232706,38459
1024509,-114298,-107177,38681,317168,165895,-114480,226609,-119001,-114531,66159,232912,38448
1024510,-114298,-107173,38638,317123,165886,-114448,226712,-119013,-114506,66171,232961,38405
1024511,-114291,-107192,38661,317145,165781,-114482,226785,-119025,-114532,66225,232856,38428
1024512,-114310,-107216,38657,317125,165629,-114491,226753,-119038,-114542,66270,232831,38422
1024513,-114340,-107241,38658,317112,165604,-114511,226713,-119066,-114561,66249,232777,38425
1024514,-114374,-107260,38602,317053,165591,-114523,226670,-119088,-114575,66232,232710,38368
1024515,-114414,-107277,38557,317026,165465,-114562,226614,-119113,-114617,66215,232776,38325
1024516,-114440,-107304,38564,316985,165424,-114578,226529,-119138,-114632,66193,232787,38331
1024517,-114479,-107325,38501,316908,165485,-114591,226480,-119149,-114645,66161,232778,38267
1024518,-114474,-107323,38506,316885,165427,-114567,226454,-119150,-114621,66159,232676,38272
1024519,-114494,-107344,38524,316903,165408,-114567,226440,-119165,-114616,66147,232563,38293
1024520,-114509,-107349,38521,316848,165452,-114597,226449,-119167,-114649,66136,232592,38285
1024521,-114528,-107335,38522,316768,165514,-114555,226450,-119140,-114610,66167,232635,38288
1024522,-114521,-107308,38546,316783,165482,-114524,226481,-119125,-114578,66180,232634,38310
1024523,-114481,-107290,38543,316879,165529,-114514,226503,-119101,-114567,66170,232623,38310
1024524,-114462,-107279,38525,316951,165646,-114495,226516,-119079,-114547,66165,232588,38290
1024525,-114445,-107249,38545,316975,165738,-114490,226573,-119067,-114543,66202,232535,38313
1024526,-114370,-107237,38576,317033,165789,-114456,226600,-119032,-114513,66269,232456,38338
1024527,-114311,-107225,38619,317100,165845,-114465,226629,-119010,-114517,66297,232468,38388
1024528,-114304,-107223,38672,317140,165823,-114465,226639,-118978,-114519,66264,232590,38436
1024529,-114297,-107210,38698,317181,165796,-114447,226684,-118953,-114498,66267,232664,38465
1024530,-114297,-107191,38719,317227,165781,-114425,226686,-118933,-114479,66286,232607,38484
1024531,-114289,-107204,38680,317187,165730,-114398,226672,-118941,-114452,66291,232648,38449
1024532,-114296,-107221,38632,317114,165705,-114396,226659,-118955,-114449,66224,232678,38399
1024533,-114322,-107234,38591,317025,165640,-114398,226646,-118963,-114451,66139,232667,38357
1024534,-114343,-107238,38591,316973,165517,-114411,226615,-118987,-114464,66092,232621,38357
1024535,-114375,-107241,38610,316888,165528,-114462,226578,-119026,-114520,66039,232579,38377
1024536,-114415,-107279,38591,316782,165499,-114499,226534,-119042,-114552,66067,232588,38358
1024537,-114461,-107333,38549,316749,165542,-114526,226444,-119081,-114579,66089,232586,38315
1024538,-114476,-107340,38559,316832,165506,-114563,226381,-119112,-114614,66069,232540,38323
1024539,-114465,-107331,38535,316895,165503,-114581,226289,-119133,-114632,66028,232502,38303
1024540,-114471,-107339,38501,316824,165584,-114567,226249,-119136,-114619,66054,232451,38266
1024541,-114492,-107331,38494,316801,165642,-114534,226215,-119101,-114588,66097,232460,38260
1024542,-114460,-107318,38514,316809,165640,-114534,226245,-119082,-114588,66108,232510,38279
1024543,-114445,-107316,38515,316810,165627,-114531,226359,-119072,-114585,66151,232537,38281
1024544,-114431,-107302,38513,316835,165631,-114521,226464,-119057,-114575,66172,232548,38280
1024545,-114406,-107280,38542,316891,165650,-114498,226528,-119046,-114552,66165,232569,38307
1024546,-114350,-107265,38581,316889,165644,-114456,226582,-119014,-114507,66195,232536,38346
1024547,-114334,-107241,38617,316913,165693,-114438,226633,-118994,-114493,66277,232545,38381
1024548,-114321,-107223,38626,316963,165776,-114426,226705,-118991,-114480,66309,232496,38394
1024549,-114299,-107221,38622,316968,165760,-114426,226781,-118980,-114479,66333,232548,38385
1024550,-114286,-107191,38654,317060,165715,-114443,226754,-118979,-114497,66279,232625,38420
1024551,-114272,-107182,38659,317108,165647,-114456,226684,-119004,-114511,66229,232708,38425
1024552,-114275,-107187,38629,317049,165593,-114428,226615,-118991,-114478,66274,232624,38397
1024553,-114331,-107235,38559,316898,165616,-114395,226532,-118961,-114451,66331,232569,38325
1024554,-114402,-107259,38537,316858,165606,-114429,226485,-118986,-114482,66266,232538,38308
1024555,-114460,-107272,38495,316839,165576,-114476,226475,-119019,-114531,66210,232570,38259
1024556,-114493,-107324,38449,316807,165528,-114517,226483,-119080,-114571,66148,232667,38217
1024557,-114512,-107343,38464,316859,165520,-114576,226427,-119145,-114631,66062,232670,38230
1024558,-114521,-107343,38468,316866,165566,-114609,226436,-119152,-114660,66068,232487,38235
1024559,-114507,-107367,38464,316830,165570,-114600,226439,-119175,-114657,66056,232337,38230
1024560,-114477,-107358,38471,316802,165621,-114582,226457,-119169,-114633,66053,232169,38238
1024561,-114459,-107328,38505,316768,165648,-114592,226500,-119147,-114645,66063,232147,38272
1024562,-114441,-107306,38542,316795,165695,-114613,226455,-119145,-114667,66050,232236,38308
1024563,-114424,-107291,38534,316830,165689,-114600,226438,-119144,-114655,66047,232391,38298
1024564,-114436,-107289,38546,316863,165699,-114567,226423,-119146,-114619,66071,232573,38312
1024565,-114433,-107265,38559,316928,165668,-114556,226435,-119137,-114609,66094,232712,38326
1024566,-114399,-107246,38579,317001,165674,-114527,226451,-119130,-114579,66102,232803,38345
1024567,-114378,-107240,38571,317063,165685,-114469,226461,-119101,-114522,66174,232872,38339
1024568,-114321,-107208,38592,317139,165654,-114421,226430,-119062,-114474,66207,232861,38357
1024569,-114247,-107164,38641,317151,165665,-114416,226497,-119053,-114468,66202,232819,38406
1024570,-114262,-107185,38652,317107,165690,-114393,226570,-119043,-114446,66263,232771,38417
1024571,-114269,-107198,38642,317088,165749,-114424,226606,-119081,-114478,66257,232712,38411
1024572,-114297,-107201,38644,317123,165781,-114477,226573,-119116,-114531,66228,232657,38412
1024573,-114324,-107218,38620,317062,165770,-114520,226570,-119141,-114574,66161,232586,38384
1024574,-114353,-107233,38539,316993,165681,-114539,226543,-119169,-114589,66158,232586,38305
1024575,-114361,-107248,38456,316962,165606,-114572,226494,-119197,-114625,66139,232601,38225
1024576,-114380,-107263,38427,316875,165567,-114598,226447,-119213,-114650,66133,232623,38193
1024577,-114392,-107286,38433,316796,165543,-114610,226420,-119212,-114666,66102,232524,38202
1024578,-114388,-107281,38489,316815,165477,-114654,226376,-119208,-114704,66059,232455,38257
1024579,-114399,-107297,38544,316848,165442,-114688,226292,-119219,-114743,66028,232424,38310
1024580,-114437,-107295,38580,316877,165460,-114713,226326,-119246,-114768,65982,232421,38344
1024581,-114426,-107282,38607,316944,165492,-114697,226395,-119264,-114753,65944,232341,38375
1024582,-114429,-107298,38644,316993,165601,-114671,226395,-119277,-114725,65926,232331,38409
1024583,-114394,-107274,38653,317025,165689,-114638,226411,-119283,-114690,65951,232323,38421
1024584,-114377,-107277,38666,317028,165686,-114625,226436,-119277,-114679,66013,232394,38435
1024585,-114341,-107268,38694,317006,165709,-114614,226497,-119259,-114666,66058,232465,38459
1024586,-114300,-107235,38723,316968,165638,-114575,226554,-119211,-114628,66111,232526,38487
1024587,-114237,-107201,38737,316990,165550,-114502,226591,-119138,-114554,66235,232487,38505
1024588,-114178,-107151,38744,317032,165577,-114461,226605,-119073,-114513,66272,232350,38510
1024589,-114184,-107154,38753,317041,165707,-114471,226611,-119072,-114522,66189,232507,38519
1024590,-114196,-107150,38744,317005,165787,-114476,226671,-119090,-114528,66072,232643,38509
1024591,-114216,-107160,38723,316993,165802,-114499,226658,-119112,-114550,66081,232679,38493
1024592,-114272,-107179,38721,317040,165836,-114563,226584,-119150,-114617,66052,232757,38487
1024593,-114318,-107218,38686,317041,165843,-114641,226523,-119213,-114693,66041,232801,38451
1024594,-114336,-107257,38677,317047,165810,-114679,226467,-119267,-114732,66037,232718,38442
1024595,-114359,-107283,38668,316984,165774,-114694,226403,-119273,-114748,66049,232656,38436
1024596,-114405,-107294,38657,316955,165758,-114713,226336,-119251,-114768,66065,232546,38421
1024597,-114401,-107297,38647,316950,165698,-114750,226328,-119252,-114804,66065,232362,38411
1024598,-114405,-107308,38663,316967,165625,-114744,226323,-119248,-114799,66037,232281,38430
1024599,-114412,-107309,38661,317009,165604,-114772,226258,-119277,-114827,65939,232326,38427
1024600,-114406,-107284,38650,317045,165441,-114781,226280,-119288,-114832,65906,232400,38419
1024601,-114358,-107260,38646,317092,165190,-114745,226377,-119286,-114797,65938,232445,38414
1024602,-114361,-107260,38654,317055,165092,-114694,226466,-119232,-114744,65993,232445,38420
1024603,-114356,-107244,38656,316956,165162,-114634,226495,-119197,-114684,66066,232470,38421
1024604,-114321,-107241,38622,316900,165383,-114612,226513,-119197,-114665,66094,232497,38388
1024605,-114293,-107241,38638,316913,165528,-114656,226539,-119208,-114709,66075,232630,38405
1024606,-114281,-107231,38645,317033,165628,-114663,226524,-119197,-114718,66079,232717,38410
1024607,-114241,-107200,38651,317079,165638,-114648,226575,-119182,-114702,66106,232811,38420
1024608,-114185,-107184,38649,317027,165690,-114617,226600,-119149,-114671,66122,232818,38415
1024609,-114188,-107142,38672,316962,165829,-114582,226621,-119099,-114631,66182,232797,38442
1024610,-114223,-107130,38719,317008,165944,-114571,226556,-119100,-114623,66192,232721,38485
1024611,-114266,-107133,38765,317077,165935,-114571,226510,-119100,-114621,66193,232641,38530
1024612,-114279,-107146,38826,317173,165838,-114611,226513,-119122,-114663,66159,232530,38592
1024613,-114294,-107194,38814,317170,165793,-114647,226525,-119152,-114699,66111,232439,38579
1024614,-114315,-107233,38779,317103,165836,-114682,226501,-119196,-114737,66038,232400,38545
1024615,-114311,-107238,38771,317010,165837,-114709,226467,-119221,-114762,65943,232375,38538
1024616,-114318,-107256,38765,316962,165783,-114716,226402,-119245,-114767,65941,232359,38529
1024617,-114308,-107267,38751,316954,165758,-114726,226281,-119254,-114780,65938,232305,38515
1024618,-114303,-107274,38721,317008,165789,-114746,226210,-119280,-114797,65918,232191,38486
1024619,-114347,-107285,38672,317007,165743,-114780,226244,-119289,-114832,65923,232156,38439
1024620,-114363,-107276,38644,316988,165668,-114817,226298,-119293,-114869,65940,232228,38411
1024621,-114386,-107272,38654,317004,165669,-114842,226338,-119275,-114896,65956,232336,38419
1024622,-114380,-107257,38660,317021,165660,-114793,226423,-119256,-114848,65992,232343,38422
1024623,-114363,-107245,38694,317044,165671,-114746,226509,-119242,-114802,65992,232334,38459
1024624,-114333,-107228,38749,317094,165615,-114694,226523,-119236,-114745,65987,232419,38512
1024625,-114342,-107214,38783,317070,165592,-114642,226529,-119193,-114696,66049,232528,38548
1024626,-114328,-107207,38771,317034,165594,-114615,226619,-119172,-114666,66118,232626,38540
1024627,-114285,-107169,38753,317083,165637,-114609,226702,-119136,-114663,66159,232659,38520
1024628,-114213,-107151,38722,317152,165654,-114573,226719,-119133,-114627,66208,232666,38487
1024629,-114178,-107139,38700,317154,165659,-114541,226752,-119096,-114595,66273,232720,38467
1024630,-114205,-107159,38693,317149,165700,-114512,226744,-119085,-114566,66262,232836,38458
1024631,-114224,-107164,38722,317121,165725,-114506,226742,-119082,-114559,66255,232851,38487
1024632,-114256,-107187,38757,317088,165781,-114519,226704,-119107,-114573,66214,232810,38524
1024633,-114266,-107224,38802,317090,165774,-114542,226659,-119134,-114597,66159,232691,38565
1024634,-114312,-107231,38783,317105,165713,-114555,226598,-119156,-114607,66160,232589,38548
1024635,-114325,-107248,38758,317099,165609,-114548,226545,-119162,-114602,66153,232494,38525
1024636,-114315,-107272,38731,317040,165565,-114530,226520,-119169,-114583,66112,232436,38498
1024637,-114329,-107294,38707,316937,165597,-114537,226412,-119171,-114591,66025,232522,38470
1024638,-114370,-107322,38655,316833,165587,-114521,226355,-119176,-114575,66090,232601,38424
1024639,-114387,-107319,38646,316886,165470,-114539,226370,-119154,-114592,66127,232531,38411
1024640,-114397,-107311,38639,316938,165380,-114530,226405,-119140,-114583,66176,232498,38406
1024641,-114368,-107315,38641,316911,165355,-114514,226439,-119107,-114569,66218,232550,38406
1024642,-114356,-107314,38667,316895,165352,-114499,226467,-119095,-114552,66245,232595,38430
1024643,-114312,-107314,38681,316870,165489,-114532,226562,-119088,-114587,66196,232619,38445
1024644,-114271,-107282,38732,316965,165497,-114563,226633,-119045,-114617,66176,232588,38496
1024645,-114225,-107253,38787,317077,165571,-114560,226623,-119031,-114613,66168,232546,38555
1024646,-114203,-107239,38835,317068,165668,-114528,226629,-119004,-114578,66202,232583,38601
1024647,-114194,-107210,38875,317049,165818,-114494,226683,-119000,-114545,66232,232635,38638
1024648,-114167,-107183,38867,317094,165954,-114456,226687,-119001,-114509,66301,232601,38632
1024649,-114165,-107181,38852,317108,165948,-114403,226705,-118978,-114458,66349,232726,38616
1024650,-114155,-107191,38784,317111,166052,-114391,226724,-118979,-114445,66341,232819,38551
1024651,-114158,-107198,38732,317100,166092,-114405,226675,-118994,-114462,66354,232853,38499
1024652,-114163,-107194,38707,317102,165957,-114445,226668,-119006,-114497,66348,232874,38474
1024653,-114181,-107213,38678,317083,165845,-114472,226612,-119041,-114523,66318,232924,38445
1024654,-114246,-107243,38635,317020,165826,-114470,226574,-119066,-114518,66268,232957,38405
1024655,-114279,-107261,38639,316998,165790,-114480,226536,-119088,-114532,66260,232875,38405
1024656,-114327,-107268,38666,317016,165718,-114497,226519,-119109,-114550,66243,232778,38429
1024657,-114359,-107277,38678,317019,165628,-114511,226498,-119098,-114566,66198,232701,38443
1024658,-114388,-107285,38682,317024,165601,-114502,226511,-119093,-114555,66178,232648,38449
1024659,-114387,-107291,38686,317015,165593,-114527,226545,-119112,-114579,66130,232558,38453
1024660,-114377,-107305,38681,317012,165615,-114552,226563,-119135,-114604,66114,232557,38446
1024661,-114346,-107295,38678,317012,165654,-114563,226567,-119130,-114613,66146,232535,38444
1024662,-114294,-107273,38722,317029,165694,-114568,226609,-119113,-114620,66143,232485,38489
1024663,-114257,-107250,38743,317043,165688,-114550,226631,-119079,-114603,66169,232469,38509
1024664,-114195,-107222,38793,317016,165635,-114519,226689,-119045,-114573,66200,232485,38557
1024665,-114156,-107195,38818,317019,165620,-114462,226699,-119017,-114514,66251,232479,38583
1024666,-114110,-107175,38840,317071,165629,-114396,226648,-118987,-114450,66314,232519,38605
1024667,-114075,-107153,38859,317121,165714,-114355,226597,-118941,-114412,66376,232544,38623
1024668,-114069,-107130,38843,317152,165801,-114302,226610,-118912,-114359,66424,232520,38604
1024669,-114046,-107115,38864,317222,165849,-114256,226693,-118908,-114307,66401,232511,38629
1024670,-114066,-107107,38843,317273,165871,-114274,226690,-118917,-114326,66365,232639,38609
1024671,-114122,-107115,38771,317196,165930,-114318,226750,-118935,-114372,66354,232758,38535
1024672,-114164,-107148,38722,317085,165889,-114355,226798,-118953,-114411,66307,232894,38488
1024673,-114179,-107147,38713,317002,165836,-114380,226793,-118985,-114435,66286,232815,38479
1024674,-114226,-107175,38685,316952,165844,-114419,226730,-119007,-114470,66271,232768,38449
1024675,-114266,-107213,38692,317015,165807,-114449,226650,-119048,-114504,66256,232806,38455
1024676,-114270,-107268,38675,317050,165716,-114455,226585,-119071,-114508,66276,232750,38437
1024677,-114279,-107274,38678,317094,165525,-114448,226505,-119068,-114498,66269,232710,38444
1024678,-114271,-107266,38668,317061,165348,-114470,226461,-119049,-114522,66295,232702,38434
1024679,-114297,-107263,38654,316896,165330,-114471,226482,-119044,-114524,66313,232728,38419
1024680,-114311,-107270,38638,316742,165355,-114483,226545,-119033,-114536,66332,232722,38404
1024681,-114306,-107254,38619,316851,165318,-114462,226582,-119016,-114514,66278,232722,38383
1024682,-114315,-107259,38611,316918,165486,-114445,226565,-119025,-114498,66245,232753,38376
1024683,-114295,-107236,38566,316934,165692,-114426,226565,-119022,-114476,66256,232719,38331
1024684,-114237,-107234,38568,316979,165786,-114387,226568,-119014,-114440,66280,232737,38335
1024685,-114237,-107241,38564,317029,165880,-114364,226568,-119031,-114419,66300,232861,38331
1024686,-114232,-107244,38617,317113,165990,-114375,226569,-119045,-114428,66335,232918,38383
1024687,-114175,-107229,38707,317190,166067,-114362,226575,-119038,-114412,66347,232899,38473
1024688,-114117,-107185,38778,317273,166072,-114386,226655,-119055,-114440,66350,232854,38545
1024689,-114082,-107151,38838,317270,166013,-114357,226755,-119044,-114409,66373,232813,38601
1024690,-114054,-107139,38878,317280,165969,-114339,226776,-119016,-114390,66357,232766,38643
1024691,-114052,-107129,38911,317318,165909,-114342,226745,-119033,-114396,66305,232769,38678
1024692,-114067,-107123,38898,317306,165817,-114343,226737,-119041,-114393,66282,232709,38661
1024693,-114099,-107138,38865,317261,165745,-114334,226687,-119046,-114388,66304,232583,38630
1024694,-114170,-107160,38853,317195,165799,-114393,226613,-119089,-114445,66286,232549,38616
1024695,-114230,-107175,38791,317075,165873,-114399,226550,-119096,-114452,66291,232488,38561
1024696,-114263,-107185,38778,317000,165795,-114423,226475,-119102,-114476,66294,232482,38543
1024697,-114268,-107192,38765,316976,165792,-114462,226498,-119160,-114516,66197,232400,38529
1024698,-114269,-107195,38763,316918,165777,-114470,226495,-119171,-114525,66205,232276,38526
1024699,-114258,-107202,38764,316947,165719,-114509,226466,-119180,-114561,66196,232165,38529
1024700,-114251,-107207,38785,316967,165602,-114520,226442,-119205,-114573,66190,232257,38547
1024701,-114273,-107218,38782,316931,165560,-114531,226411,-119197,-114582,66174,232512,38549
1024702,-114277,-107207,38781,316928,165569,-114543,226432,-119196,-114597,66154,232685,38548
1024703,-114260,-107206,38747,316914,165643,-114552,226443,-119167,-114607,66164,232782,38513
1024704,-114232,-107185,38709,316976,165678,-114524,226481,-119145,-114578,66156,232828,38475
1024705,-114242,-107188,38689,317015,165718,-114507,226569,-119144,-114558,66156,232855,38456
1024706,-114215,-107182,38735,317068,165739,-114470,226617,-119146,-114520,66177,232861,38501
1024707,-114200,-107174,38759,317094,165790,-114411,226629,-119134,-114462,66294,232850,38525
1024708,-114181,-107142,38805,317108,165842,-114405,226653,-119129,-114458,66348,232799,38573
1024709,-114169,-107125,38845,317149,165784,-114394,226730,-119102,-114446,66390,232778,38607
1024710,-114157,-107100,38894,317220,165752,-114420,226715,-119103,-114473,66372,232790,38661
1024711,-114153,-107104,38878,317199,165832,-114456,226645,-119145,-114507,66337,232800,38645
1024712,-114169,-107123,38855,317112,165873,-114453,226619,-119152,-114504,66267,232784,38623
1024713,-114228,-107147,38818,317055,165854,-114479,226584,-119175,-114530,66167,232809,38585
1024714,-114260,-107181,38774,317028,165795,-114539,226572,-119178,-114591,66153,232677,38538
1024715,-114272,-107219,38741,317029,165743,-114592,226583,-119192,-114645,66148,232541,38507
1024716,-114282,-107235,38722,317068,165742,-114626,226520,-119213,-114682,66101,232365,38490
1024717,-114318,-107260,38733,317077,165743,-114636,226441,-119248,-114688,66053,232352,38499
1024718,-114338,-107264,38701,317020,165699,-114619,226318,-119248,-114672,66072,232404,38468
1024719,-114352,-107307,38685,316976,165601,-114596,226287,-119245,-114648,66096,232404,38451
1024720,-114324,-107303,38682,316953,165509,-114553,226321,-119229,-114606,66146,232288,38447
1024721,-114314,-107282,38707,317003,165449,-114513,226344,-119197,-114566,66148,232183,38474
1024722,-114312,-107265,38753,317063,165544,-114514,226236,-119212,-114569,66120,232296,38519
1024723,-114336,-107277,38762,317010,165684,-114496,226199,-119218,-114548,66133,232489,38529
1024724,-114352,-107285,38754,317053,165669,-114501,226321,-119210,-114554,66140,232589,38523
1024725,-114343,-107272,38739,317087,165680,-114483,226417,-119199,-114539,66139,232654,38507
1024726,-114307,-107247,38716,317080,165698,-114442,226458,-119140,-114492,66223,232653,38485
1024727,-114259,-107228,38731,317127,165696,-114398,226506,-119107,-114447,66305,232645,38499
1024728,-114215,-107206,38719,317101,165696,-114386,226606,-119095,-114439,66300,232713,38484
1024729,-114194,-107212,38751,317013,165665,-114343,226686,-119044,-114395,66291,232828,38515
1024730,-114188,-107193,38805,316991,165620,-114334,226648,-119022,-114387,66334,232898,38570
1024731,-114190,-107213,38825,317008,165569,-114349,226587,-119047,-114404,66343,232936,38589
1024732,-114226,-107248,38770,316973,165495,-114379,226626,-119065,-114432,66354,232958,38537
1024733,-114261,-107270,38732,316966,165457,-114404,226619,-119107,-114456,66295,232912,38498
1024734,-114281,-107292,38701,316953,165500,-114420,226569,-119125,-114471,66245,232726,38462
1024735,-114327,-107305,38669,316913,165578,-114432,226568,-119134,-114485,66235,232521,38436
1024736,-114373,-107334,38653,316886,165647,-114498,226555,-119178,-114551,66179,232484,38418
1024737,-114400,-107366,38660,316931,165684,-114548,226495,-119227,-114600,66113,232497,38424
1024738,-114402,-107371,38657,316965,165709,-114566,226450,-119233,-114623,66078,232391,38424
1024739,-114411,-107368,38670,316955,165626,-114583,226421,-119219,-114636,66063,232312,38435
1024740,-114413,-107376,38663,316882,165572,-114607,226423,-119187,-114660,66044,232394,38431
1024741,-114399,-107358,38679,316852,165522,-114644,226451,-119180,-114696,66047,232518,38445
1024742,-114399,-107355,38644,316872,165617,-114670,226453,-119186,-114722,66037,232619,38410
1024743,-114378,-107338,38645,316939,165700,-114668,226444,-119197,-114721,66030,232654,38411
1024744,-114353,-107343,38650,316978,165717,-114607,226466,-119170,-114659,66080,232647,38416
1024745,-114324,-107304,38686,316968,165653,-114550,226519,-119157,-114601,66117,232672,38455
1024746,-114270,-107278,38736,316991,165616,-114509,226575,-119139,-114563,66110,232701,38503
1024747,-114235,-107251,38777,316990,165659,-114478,226662,-119121,-114530,66142,232725,38540
1024748,-114222,-107256,38803,317001,165749,-114441,226725,-119096,-114494,66178,232665,38564
1024749,-114211,-107247,38859,317034,165799,-114418,226761,-119079,-114474,66193,232561,38623
1024750,-114189,-107247,38884,317048,165815,-114390,226753,-119082,-114445,66211,232552,38650
1024751,-114194,-107253,38883,317029,165781,-114398,226731,-119082,-114451,66237,232573,38646
1024752,-114192,-107256,38889,317028,165681,-114444,226721,-119097,-114492,66246,232496,38653
1024753,-114227,-107268,38854,316937,165599,-114435,226694,-119078,-114489,66192,232437,38621
1024754,-114279,-107314,38815,316877,165617,-114497,226624,-119130,-114549,66173,232514,38580
1024755,-114347,-107350,38742,316841,165677,-114539,226552,-119166,-114596,66171,232564,38508
1024756,-114408,-107376,38715,316855,165660,-114545,226496,-119180,-114599,66136,232517,38480
1024757,-114388,-107368,38696,316919,165691,-114546,226437,-119175,-114600,66098,232205,38462
1024758,-114362,-107366,38710,316965,165691,-114558,226382,-119196,-114612,66090,232072,38474
1024759,-114389,-107386,38693,316963,165576,-114599,226288,-119239,-114651,66093,232285,38459
1024760,-114432,-107395,38689,316969,165452,-114586,226241,-119233,-114641,66141,232487,38455
1024761,-114389,-107391,38664,316964,165358,-114566,226286,-119202,-114620,66142,232560,38430
1024762,-114368,-107411,38641,316935,165375,-114555,226359,-119196,-114613,66142,232652,38408
1024763,-114335,-107390,38645,316905,165403,-114521,226445,-119168,-114579,66167,232650,38409
1024764,-114300,-107368,38631,317018,165498,-114498,226509,-119152,-114551,66161,232622,38400
1024765,-114310,-107377,38638,317037,165680,-114507,226570,-119174,-114560,66148,232709,38403
1024766,-114297,-107373,38647,317069,165826,-114523,226631,-119171,-114576,66117,232779,38412
1024767,-114279,-107368,38706,317137,165848,-114513,226680,-119136,-114564,66164,232860,38474
1024768,-114259,-107330,38729,317166,165906,-114502,226716,-119107,-114560,66174,232883,38493
1024769,-114215,-107313,38738,317186,165937,-114510,226743,-119093,-114560,66297,232848,38504
1024770,-114192,-107307,38739,317154,165888,-114504,226780,-119097,-114556,66364,232881,38506
1024771,-114176,-107291,38782,317115,165808,-114458,226777,-119098,-114516,66354,232861,38546
1024772,-114187,-107297,38807,317075,165736,-114451,226753,-119105,-114502,66335,232826,38573
1024773,-114205,-107322,38843,317009,165626,-114462,226705,-119116,-114516,66298,232847,38610
1024774,-114230,-107342,38828,317002,165572,-114495,226616,-119150,-114547,66257,232796,38596
1024775,-114268,-107340,38813,317029,165508,-114516,226510,-119157,-114570,66249,232725,38579
1024776,-114303,-107385,38764,316991,165564,-114542,226358,-119158,-114592,66240,232777,38531
1024777,-114315,-107404,38686,316948,165692,-114566,226215,-119159,-114619,66213,232770,38456
1024778,-114322,-107389,38650,316938,165715,-114588,226177,-119147,-114644,66153,232725,38414
1024779,-114339,-107379,38654,316957,165656,-114589,226258,-119145,-114641,66083,232602,38420
1024780,-114325,-107386,38671,316965,165586,-114600,226357,-119110,-114651,66074,232541,38436
1024781,-114299,-107392,38695,316988,165535,-114553,226408,-119116,-114603,66101,232557,38462
1024782,-114287,-107402,38691,316977,165653,-114529,226436,-119100,-114581,66102,232557,38456
1024783,-114267,-107406,38686,316962,165715,-114512,226603,-119125,-114565,66106,232542,38451
1024784,-114251,-107393,38704,316983,165709,-114485,226731,-119106,-114535,66170,232516,38471
1024785,-114240,-107366,38754,317081,165717,-114462,226788,-119093,-114514,66228,232402,38519
1024786,-114202,-107349,38803,317100,165810,-114456,226820,-119087,-114507,66262,232417,38567
1024787,-114184,-107310,38822,317094,165941,-114433,226837,-119081,-114486,66285,232544,38588
1024788,-114167,-107311,38807,317021,165962,-114422,226878,-119063,-114475,66316,232736,38575
1024789,-114127,-107297,38810,316987,165959,-114416,226884,-119039,-114469,66380,232893,38577
1024790,-114079,-107286,38818,316997,165894,-114401,226882,-119009,-114452,66381,232931,38585
1024791,-114098,-107303,38793,317029,165883,-114399,226869,-118995,-114450,66402,232915,38561
1024792,-114130,-107323,38770,316973,165903,-114402,226847,-119025,-114457,66393,232848,38536
1024793,-114146,-107317,38752,316896,165897,-114419,226783,-119048,-114472,66339,232776,38520
1024794,-114156,-107320,38741,316910,165828,-114429,226702,-119086,-114482,66313,232659,38506
1024795,-114166,-107324,38740,316998,165791,-114461,226635,-119111,-114514,66230,232560,38504
1024796,-114201,-107340,38720,317027,165717,-114481,226594,-119129,-114532,66199,232518,38487
1024797,-114232,-107358,38675,317004,165680,-114502,226565,-119156,-114555,66158,232542,38443
1024798,-114257,-107382,38647,316984,165634,-114515,226513,-119186,-114567,66098,232731,38412
1024799,-114295,-107392,38632,316948,165631,-114510,226480,-119178,-114562,66117,232731,38400
1024800,-114294,-107392,38613,316938,165708,-114516,226410,-119175,-114571,66122,232704,38378
1024801,-114254,-107346,38601,316950,165732,-114504,226343,-119153,-114558,66152,232678,38364
1024802,-114227,-107327,38569,316939,165725,-114462,226381,-119115,-114519,66164,232664,38336
1024803,-114251,-107324,38542,316969,165725,-114459,226482,-119105,-114512,66197,232735,38310
1024804,-114223,-107288,38582,317024,165646,-114444,226544,-119072,-114498,66187,232812,38349
1024805,-114195,-107275,38628,316993,165590,-114414,226613,-119038,-114466,66216,232879,38391
1024806,-114161,-107260,38731,316965,165586,-114383,226677,-119001,-114437,66305,232800,38499
1024807,-114112,-107216,38817,317096,165563,-114343,226718,-118988,-114398,66341,232716,38583
1024808,-114068,-107174,38885,317185,165533,-114328,226731,-118986,-114381,66384,232688,38650
1024809,-114064,-107169,38933,317139,165648,-114325,226777,-118984,-114381,66413,232724,38698
1024810,-114040,-107156,38937,317057,165731,-114315,226823,-118966,-114370,66392,232651,38701
1024811,-114029,-107157,38918,317075,165767,-114402,226857,-118945,-114454,66390,232536,38682
1024812,-114081,-107183,38859,317122,165901,-114502,226835,-118986,-114557,66337,232554,38625
1024813,-114125,-107204,38813,317096,165914,-114545,226765,-119016,-114601,66230,232617,38580
1024814,-114208,-107226,38788,317084,165869,-114528,226675,-119043,-114584,66169,232668,38554
1024815,-114278,-107257,38755,317099,165858,-114555,226606,-119098,-114610,66110,232742,38521
1024816,-114285,-107254,38720,317063,165880,-114581,226547,-119143,-114635,66099,232723,38484
1024817,-114292,-107271,38710,317059,165805,-114551,226494,-119162,-114604,66126,232567,38477
1024818,-114298,-107277,38689,317038,165770,-114518,226464,-119162,-114571,66131,232517,38455
1024819,-114313,-107302,38681,316966,165731,-114485,226443,-119153,-114538,66087,232551,38445
1024820,-114321,-107308,38702,316883,165731,-114437,226439,-119149,-114489,66076,232570,38470
1024821,-114341,-107288,38740,316928,165727,-114419,226444,-119149,-114470,66081,232567,38506
1024822,-114316,-107254,38815,316978,165548,-114374,226422,-119124,-114426,66096,232617,38579
1024823,-114303,-107259,38866,317024,165507,-114389,226506,-119119,-114443,66090,232683,38629
1024824,-114318,-107265,38872,317028,165680,-114396,226558,-119135,-114451,66124,232756,38638
1024825,-114291,-107252,38884,317086,165789,-114407,226575,-119119,-114462,66145,232806,38650
1024826,-114244,-107226,38943,317173,165822,-114422,226615,-119115,-114474,66186,232791,38707
1024827,-114201,-107185,38971,317209,165843,-114415,226700,-119103,-114469,66253,232760,38735
1024828,-114166,-107163,39010,317097,165869,-114347,226712,-119037,-114402,66332,232731,38776
1024829,-114139,-107132,39051,317091,165898,-114285,226683,-119011,-114336,66379,232696,38819
1024830,-114135,-107139,39043,317138,165892,-114265,226647,-118997,-114316,66410,232715,38807
1024831,-114176,-107159,39025,317186,165959,-114275,226589,-119032,-114330,66365,232809,38793
1024832,-114186,-107193,39001,317245,165899,-114305,226548,-119082,-114360,66321,232847,38768
1024833,-114187,-107214,38967,317228,165828,-114291,226460,-119086,-114343,66315,232802,38733
1024834,-114234,-107246,38939,317152,165793,-114346,226390,-119125,-114399,66279,232877,38706
1024835,-114274,-107258,38892,317038,165736,-114347,226398,-119144,-114402,66256,232898,38657
1024836,-114334,-107269,38883,317014,165675,-114356,226398,-119158,-114408,66236,232817,38650
1024837,-114390,-107272,38868,317025,165579,-114356,226374,-119159,-114410,66211,232698,38630
1024838,-114399,-107281,38851,317046,165482,-114349,226393,-119150,-114403,66170,232667,38614
1024839,-114409,-107294,38805,317043,165460,-114370,226417,-119174,-114421,66221,232622,38573
1024840,-114406,-107287,38785,316998,165515,-114388,226477,-119156,-114440,66261,232474,38552
1024841,-114364,-107274,38813,317045,165609,-114346,226533,-119130,-114394,66264,232142,38582
1024842,-114356,-107280,38862,317122,165699,-114352,226515,-119149,-114402,66221,232142,38628
1024843,-114341,-107287,38905,317161,165766,-114389,226457,-119183,-114446,66131,232446,38667
1024844,-114336,-107277,38917,317149,165796,-114406,226463,-119167,-114457,66132,232651,38685
1024845,-114305,-107266,38911,317131,165778,-114388,226517,-119149,-114440,66205,232709,38676
1024846,-114279,-107247,38905,317153,165686,-114346,226542,-119130,-114399,66311,232821,38670
1024847,-114271,-107230,38889,317183,165717,-114317,226562,-119113,-114371,66351,232946,38658
1024848,-114241,-107216,38911,317229,165768,-114311,226573,-119097,-114361,66382,232990,38676
1024849,-114215,-107223,38915,317194,165821,-114315,226622,-119074,-114367,66437,233025,38683
1024850,-114231,-107222,38887,317207,165943,-114292,226668,-119061,-114344,66441,232921,38654
1024851,-114226,-107215,38866,317190,165920,-114283,226690,-119042,-114336,66417,232877,38635
1024852,-114245,-107233,38827,317207,165853,-114325,226658,-119063,-114375,66356,232883,38592
1024853,-114275,-107256,38821,317192,165830,-114409,226622,-119101,-114462,66252,232903,38588
1024854,-114292,-107272,38836,317197,165826,-114455,226576,-119138,-114507,66185,232735,38604
1024855,-114337,-107303,38900,317159,165822,-114481,226532,-119169,-114532,66176,232534,38663
1024856,-114398,-107340,38884,317091,165877,-114465,226461,-119199,-114515,66151,232536,38650
1024857,-114443,-107370,38862,317044,165926,-114464,226389,-119233,-114517,66061,232567,38629
1024858,-114470,-107384,38833,317007,165895,-114480,226369,-119258,-114534,66078,232639,38602
1024859,-114470,-107383,38816,316974,165838,-114524,226284,-119311,-114575,66086,232728,38586
1024860,-114460,-107378,38824,317006,165810,-114521,226200,-119292,-114575,66129,232678,38588
1024861,-114445,-107366,38823,317010,165812,-114482,226181,-119246,-114536,66177,232617,38589
1024862,-114433,-107371,38836,316991,165849,-114452,226239,-119214,-114504,66169,232602,38603
1024863,-114408,-107338,38881,316981,165876,-114443,226313,-119212,-114493,66154,232606,38647
1024864,-114359,-107315,38901,316970,165883,-114424,226419,-119239,-114477,66148,232651,38669
1024865,-114313,-107314,38912,316974,165904,-114462,226516,-119239,-114513,66177,232706,38677
1024866,-114252,-107296,38942,317019,165945,-114460,226582,-119246,-114511,66183,232704,38708
1024867,-114206,-107271,38980,317106,166054,-114427,226654,-119201,-114482,66251,232521,38747
1024868,-114189,-107249,38993,317185,166055,-114378,226737,-119169,-114429,66287,232407,38758
1024869,-114146,-107204,38994,317326,166064,-114368,226752,-119131,-114421,66211,232446,38762
1024870,-114098,-107194,38973,317381,166058,-114386,226750,-119146,-114439,66080,232570,38738
1024871,-114101,-107202,38927,317284,165964,-114373,226714,-119134,-114424,66131,232690,38691
1024872,-114142,-107226,38862,317236,165881,-114383,226599,-119146,-114436,66179,232800,38629
1024873,-114183,-107268,38846,317190,165857,-114411,226493,-119175,-114465,66202,232788,38611
1024874,-114235,-107286,38844,317072,165787,-114431,226481,-119202,-114488,66208,232720,38608
1024875,-114252,-107288,38893,316978,165609,-114429,226470,-119172,-114483,66231,232659,38658
1024876,-114271,-107322,38861,316951,165435,-114439,226447,-119169,-114495,66222,232718,38625
1024877,-114305,-107365,38791,316883,165326,-114455,226483,-119187,-114507,66209,232784,38555
1024878,-114367,-107397,38754,316847,165395,-114493,226506,-119206,-114544,66188,232831,38520
1024879,-114414,-107430,38723,316882,165429,-114511,226451,-119220,-114563,66169,232793,38487
1024880,-114415,-107436,38722,316849,165448,-114499,226442,-119193,-114553,66174,232766,38488
1024881,-114360,-107421,38717,316869,165479,-114502,226410,-119171,-114556,66130,232814,38481
1024882,-114328,-107420,38712,316963,165525,-114517,226383,-119169,-114567,66109,232887,38480
1024883,-114323,-107430,38715,316957,165573,-114490,226450,-119134,-114542,66161,232896,38483
1024884,-114285,-107411,38732,316985,165635,-114490,226548,-119128,-114542,66192,232858,38496
1024885,-114253,-107387,38772,317039,165689,-114450,226595,-119091,-114505,66233,232777,38539
1024886,-114227,-107392,38791,317061,165764,-114425,226661,-119073,-114478,66279,232766,38560
1024887,-114161,-107369,38855,317122,165843,-114430,226750,-119059,-114484,66307,232790,38620
1024888,-114114,-107350,38835,317186,165882,-114408,226775,-119043,-114458,66317,232789,38604
1024889,-114092,-107329,38803,317249,165936,-114378,226779,-119016,-114434,66345,232799,38569
1024890,-114086,-107323,38788,317217,165979,-114353,226827,-118983,-114406,66321,232790,38556
1024891,-114082,-107321,38766,317184,166006,-114359,226839,-118970,-114414,66334,232687,38532
1024892,-114122,-107340,38776,317138,165939,-114384,226809,-118971,-114439,66334,232682,38543
1024893,-114159,-107342,38788,317073,165800,-114431,226759,-118999,-114485,66341,232727,38557
1024894,-114203,-107378,38819,317001,165795,-114492,226725,-119038,-114542,66267,232734,38587
1024895,-114204,-107406,38808,316925,165751,-114552,226697,-119051,-114607,66227,232759,38578
1024896,-114206,-107401,38823,316944,165671,-114629,226689,-119071,-114683,66218,232670,38590
1024897,-114232,-107420,38802,316926,165600,-114611,226641,-119071,-114665,66176,232616,38568
1024898,-114265,-107440,38746,316853,165623,-114601,226567,-119076,-114657,66128,232713,38512
1024899,-114303,-107465,38716,316809,165635,-114586,226514,-119072,-114638,66154,232672,38483
1024900,-114330,-107465,38707,316796,165725,-114578,226516,-119063,-114630,66149,232565,38475
1024901,-114328,-107447,38709,316809,165758,-114547,226541,-119054,-114602,66125,232597,38476
1024902,-114286,-107430,38720,316838,165743,-114514,226538,-119040,-114566,66084,232632,38486
1024903,-114253,-107405,38735,316947,165709,-114474,226557,-119016,-114527,66086,232654,38502
1024904,-114246,-107395,38751,317040,165709,-114442,226589,-118995,-114494,66099,232750,38517
1024905,-114217,-107413,38737,317049,165724,-114423,226704,-118993,-114476,66158,232828,38502
1024906,-114164,-107430,38733,316993,165758,-114401,226811,-118982,-114454,66218,232886,38499
1024907,-114133,-107430,38722,316948,165826,-114385,226896,-118947,-114437,66268,232964,38487
1024908,-114114,-107424,38715,316928,165861,-114367,226945,-118936,-114416,66294,233078,38481
1024909,-114101,-107424,38724,316954,165940,-114349,226975,-118911,-114402,66364,233101,38491
1024910,-114089,-107401,38756,316950,165891,-114339,226973,-118882,-114395,66436,233029,38521
1024911,-114080,-107387,38758,316945,165843,-114377,226978,-118883,-114432,66447,232976,38524
1024912,-114082,-107375,38738,316975,165779,-114405,226923,-118896,-114458,66447,232915,38504
1024913,-114109,-107387,38688,316995,165671,-114445,226878,-118917,-114499,66411,232912,38457
1024914,-114136,-107411,38660,317010,165594,-114486,226823,-118942,-114538,66370,232894,38424
1024915,-114164,-107441,38660,316998,165554,-114520,226811,-118982,-114572,66311,232831,38428
1024916,-114189,-107467,38654,316917,165587,-114546,226792,-118992,-114596,66248,232766,38422
1024917,-114228,-107489,38646,316857,165620,-114567,226747,-119025,-114618,66179,232762,38415
1024918,-114237,-107502,38627,316757,165631,-114558,226747,-119038,-114615,66165,232717,38393
1024919,-114257,-107506,38661,316692,165644,-114578,226709,-119048,-114632,66114,232688,38423
1024920,-114246,-107495,38694,316736,165678,-114563,226668,-119035,-114619,66100,232571,38461
1024921,-114212,-107466,38705,316778,165678,-114541,226618,-119016,-114592,66119,232468,38471
1024922,-114180,-107438,38729,316832,165686,-114523,226592,-118991,-114577,66144,232453,38495
1024923,-114175,-107430,38713,316836,165733,-114491,226645,-118963,-114545,66176,232500,38477
1024924,-114156,-107406,38717,316894,165756,-114474,226712,-118953,-114525,66187,232494,38481
1024925,-114126,-107374,38716,317028,165621,-114431,226742,-118937,-114483,66216,232473,38482
1024926,-114072,-107341,38738,317121,165466,-114406,226805,-118907,-114460,66239,232564,38504
1024927,-114055,-107314,38737,317131,165568,-114421,226858,-118896,-114474,66210,232728,38503
1024928,-114050,-107305,38787,317081,165645,-114458,226900,-118907,-114510,66256,232859,38553
1024929,-114015,-107284,38822,317079,165717,-114449,226951,-118892,-114501,66245,232865,38588
1024930,-113980,-107274,38858,317052,165814,-114446,226931,-118885,-114499,66223,232793,38623
1024931,-113989,-107282,38888,317081,165830,-114473,226900,-118928,-114529,66227,232793,38655
1024932,-114024,-107304,38891,317071,165871,-114504,226818,-118970,-114560,66198,232822,38656
1024933,-114077,-107332,38881,317053,165955,-114547,226728,-119010,-114601,66157,232790,38647
1024934,-114155,-107354,38849,317044,165853,-114532,226644,-119030,-114586,66168,232715,38613
1024935,-114216,-107351,38833,317073,165801,-114545,226612,-119051,-114600,66192,232558,38599
1024936,-114223,-107336,38790,317025,165697,-114567,226618,-119085,-114619,66195,232545,38555
1024937,-114219,-107339,38776,316959,165616,-114577,226538,-119109,-114632,66146,232591,38540
1024938,-114218,-107354,38747,316907,165575,-114593,226448,-119124,-114645,66136,232656,38515
1024939,-114275,-107370,38740,316866,165627,-114594,226408,-119140,-114650,66123,232658,38506
1024940,-114349,-107374,38722,316829,165687,-114595,226450,-119133,-114649,66125,232697,38488
1024941,-114350,-107371,38737,316877,165773,-114600,226445,-119143,-114654,66145,232682,38500
1024942,-114327,-107375,38737,316909,165759,-114585,226495,-119124,-114640,66147,232753,38502
1024943,-114260,-107364,38750,316929,165782,-114592,226588,-119123,-114647,66120,232768,38516
1024944,-114223,-107352,38770,316856,165843,-114578,226681,-119123,-114632,66142,232797,38534
1024945,-114160,-107343,38805,316810,165842,-114510,226714,-119094,-114563,66230,232762,38573
1024946,-114133,-107316,38844,316885,165857,-114495,226715,-119081,-114548,66257,232800,38613
1024947,-114083,-107279,38890,317007,165874,-114503,226781,-119094,-114556,66242,232852,38656
1024948,-114051,-107258,38923,317106,165889,-114520,226805,-119096,-114572,66248,232875,38688
1024949,-114030,-107236,38940,317140,165926,-114508,226774,-119090,-114560,66277,232957,38707
1024950,-114026,-107220,38979,317170,165976,-114511,226780,-119085,-114564,66257,232955,38746
1024951,-114040,-107227,38968,317168,166032,-114520,226779,-119082,-114578,66233,232903,38732
1024952,-114083,-107225,38977,317131,166043,-114551,226751,-119124,-114605,66161,232885,38743
1024953,-114090,-107224,38987,317139,165984,-114577,226688,-119150,-114631,66103,232797,38752
1024954,-114128,-107245,38986,317152,165929,-114630,226647,-119182,-114685,66061,232718,38750
1024955,-114156,-107248,38954,317173,165931,-114716,226594,-119190,-114767,66003,232592,38718
1024956,-114179,-107244,38915,317170,165869,-114723,226563,-119208,-114777,65968,232503,38686
1024957,-114203,-107254,38889,317140,165730,-114704,226550,-119181,-114756,65964,232427,38656
1024958,-114199,-107269,38887,317118,165592,-114694,226544,-119172,-114747,65968,232365,38655
1024959,-114214,-107265,38896,317068,165567,-114690,226499,-119174,-114743,65978,232308,38663
1024960,-114207,-107262,38923,317054,165570,-114660,226446,-119174,-114714,65913,232262,38688
1024961,-114206,-107263,38953,317047,165700,-114665,226435,-119197,-114715,65955,232222,38720
1024962,-114195,-107262,38970,317041,165769,-114659,226447,-119172,-114710,66027,232155,38738
1024963,-114188,-107238,38990,317108,165733,-114641,226494,-119167,-114692,66059,232179,38757
1024964,-114189,-107216,39001,317200,165714,-114610,226442,-119190,-114663,66061,232357,38766
1024965,-114147,-107203,39015,317158,165655,-114583,226412,-119186,-114637,66063,232645,38782
1024966,-114135,-107170,39002,317122,165553,-114544,226523,-119166,-114599,66103,232785,38769
1024967,-114107,-107133,38947,317050,165551,-114463,226637,-119102,-114518,66180,232822,38713
1024968,-114086,-107121,38911,317035,165587,-114406,226692,-119074,-114461,66196,232861,38678
1024969,-114109,-107125,38936,317042,165728,-114415,226712,-119062,-114467,66180,232943,38704
1024970,-114140,-107131,39013,317073,165831,-114481,226737,-119102,-114536,66176,232921,38781
1024971,-114147,-107146,39058,317077,165826,-114510,226764,-119109,-114560,66208,232839,38824
1024972,-114136,-107166,39111,317085,165780,-114562,226711,-119125,-114615,66173,232743,38875
1024973,-114176,-107186,39128,317109,165746,-114582,226665,-119141,-114632,66110,232614,38896
1024974,-114236,-107234,39078,317089,165788,-114625,226607,-119184,-114676,66056,232589,38846
1024975,-114288,-107268,39032,317108,165717,-114632,226542,-119230,-114683,66060,232644,38798
1024976,-114316,-107307,38980,317074,165748,-114617,226495,-119255,-114671,66050,232534,38748
1024977,-114344,-107346,38931,317044,165935,-114628,226429,-119251,-114680,66021,232347,38698
1024978,-114390,-107362,38922,317035,165953,-114653,226359,-119270,-114706,65987,232371,38686
1024979,-114441,-107378,38894,317022,165901,-114688,226310,-119282,-114743,65964,232470,38662
1024980,-114455,-107402,38869,317007,165858,-114710,226327,-119299,-114761,65943,232578,38636
1024981,-114455,-107393,38877,316985,165778,-114713,226333,-119279,-114765,65940,232728,38644
1024982,-114431,-107370,38908,316988,165746,-114673,226336,-119245,-114725,65990,232715,38679
1024983,-114403,-107371,38930,316990,165765,-114622,226342,-119214,-114676,66014,232714,38697
1024984,-114363,-107356,38942,317016,165830,-114587,226369,-119184,-114640,66055,232667,38706
1024985,-114336,-107337,38939,317054,165869,-114533,226413,-119154,-114588,66042,232623,38705
1024986,-114313,-107309,38943,317123,165743,-114489,226507,-119098,-114542,66084,232663,38712
1024987,-114272,-107291,38983,317185,165699,-114472,226596,-119080,-114526,66115,232695,38751
1024988,-114225,-107274,39001,317200,165755,-114460,226603,-119062,-114511,66143,232682,38767
1024989,-114205,-107261,39037,317145,165852,-114440,226619,-119021,-114493,66177,232647,38803
1024990,-114215,-107255,39033,317115,165861,-114409,226672,-119002,-114460,66235,232593,38800
1024991,-114206,-107260,39031,317024,165816,-114418,226683,-119012,-114470,66237,232596,38800
1024992,-114200,-107266,39032,316974,165746,-114467,226683,-119062,-114521,66199,232653,38800
1024993,-114209,-107288,38984,316914,165681,-114479,226677,-119075,-114535,66134,232617,38749
1024994,-114223,-107311,38900,316938,165622,-114507,226550,-119113,-114560,66075,232633,38667
1024995,-114263,-107352,38851,316922,165628,-114540,226414,-119137,-114590,66072,232656,38619
1024996,-114317,-107372,38825,316912,165590,-114543,226317,-119159,-114594,66118,232602,38594
1024997,-114352,-107384,38829,316890,165482,-114561,226379,-119199,-114610,66128,232484,38596
1024998,-114381,-107414,38797,316821,165409,-114560,226437,-119194,-114612,66124,232445,38565
1024999,-114389,-107442,38761,316716,165435,-114578,226439,-119193,-114633,66077,232484,38526
1025000,-114406,-107435,38781,316770,165441,-114583,226491,-119192,-114639,66018,232415,38545
1025001,-114421,-107401,38794,316859,165323,-114564,226535,-119199,-114616,66040,232397,38561
1025002,-114438,-107381,38779,316881,165308,-114557,226480,-119176,-114611,66069,232570,38546
1025003,-114395,-107381,38791,316766,165449,-114540,226489,-119165,-114593,66048,232735,38557
1025004,-114363,-107370,38796,316792,165531,-114554,226482,-119149,-114607,66010,232836,38564
1025005,-114377,-107352,38834,316961,165536,-114555,226507,-119121,-114609,66018,232772,38600
1025006,-114389,-107352,38866,317010,165674,-114555,226565,-119093,-114610,66016,232792,38634
1025007,-114346,-107355,38921,317039,165733,-114523,226627,-119081,-114576,66034,232849,38685
1025008,-114288,-107350,38948,317170,165644,-114483,226616,-119063,-114535,66049,232874,38715
1025009,-114231,-107346,38983,317236,165697,-114436,226578,-119052,-114489,66114,232878,38750
1025010,-114206,-107355,38967,317253,165776,-114423,226645,-119069,-114477,66148,232825,38733
1025011,-114209,-107381,38930,317176,165842,-114417,226623,-119083,-114467,66174,232816,38698
1025012,-114225,-107399,38889,317056,165906,-114442,226539,-119103,-114498,66240,232869,38656
1025013,-114251,-107445,38828,316994,165909,-114482,226494,-119106,-114535,66255,232786,38597
1025014,-114284,-107458,38784,316931,165901,-114513,226521,-119134,-114567,66233,232710,38549
1025015,-114306,-107483,38760,316895,165869,-114536,226529,-119150,-114591,66202,232605,38529
1025016,-114339,-107502,38744,316831,165872,-114583,226494,-119166,-114637,66178,232570,38511
1025017,-114372,-107523,38710,316726,165840,-114560,226500,-119166,-114611,66152,232585,38480
1025018,-114376,-107553,38683,316698,165807,-114573,226528,-119185,-114624,66111,232554,38450
1025019,-114377,-107539,38698,316743,165781,-114588,226556,-119199,-114641,66072,232399,38463
1025020,-114373,-107531,38688,316779,165742,-114592,226554,-119187,-114648,66060,232376,38457
1025021,-114362,-107529,38676,316824,165744,-114563,226532,-119187,-114612,66093,232413,38443
1025022,-114343,-107535,38657,316851,165703,-114545,226532,-119171,-114595,66154,232467,38427
1025023,-114291,-107511,38612,316882,165674,-114526,226557,-119138,-114579,66182,232512,38377
1025024,-114271,-107498,38594,316928,165693,-114496,226574,-119094,-114546,66198,232548,38364
1025025,-114257,-107495,38621,316979,165751,-114494,226638,-119071,-114544,66165,232582,38385
1025026,-114236,-107499,38669,317014,165811,-114498,226689,-119076,-114550,66168,232715,38435
1025027,-114237,-107502,38710,317001,165866,-114474,226727,-119065,-114529,66233,232871,38475
1025028,-114201,-107485,38734,316994,165897,-114452,226788,-119037,-114503,66290,232872,38503
1025029,-114146,-107446,38799,317021,165874,-114419,226843,-119017,-114470,66313,232870,38564
1025030,-114129,-107448,38789,317003,165827,-114402,226868,-119012,-114455,66314,232930,38553
1025031,-114153,-107466,38747,316979,165833,-114411,226861,-119028,-114465,66289,233013,38512
1025032,-114199,-107471,38713,316965,165764,-114405,226815,-119037,-114458,66303,233027,38478
1025033,-114248,-107482,38697,316942,165659,-114420,226777,-119034,-114472,66310,232990,38463
1025034,-114289,-107494,38672,316902,165607,-114444,226747,-119054,-114497,66292,232930,38440
1025035,-114287,-107521,38652,316832,165594,-114462,226688,-119066,-114515,66276,232865,38420
1025036,-114310,-107541,38610,316766,165607,-114476,226619,-119050,-114529,66276,232841,38376
1025037,-114337,-107547,38604,316782,165585,-114492,226625,-119089,-114544,66192,232763,38369
1025038,-114342,-107550,38608,316863,165576,-114533,226640,-119104,-114583,66131,232688,38378
1025039,-114328,-107551,38596,316858,165560,-114547,226608,-119117,-114600,66099,232687,38362
1025040,-114315,-107550,38611,316879,165538,-114530,226600,-119093,-114582,66122,232536,38378
1025041,-114285,-107539,38617,316915,165606,-114516,226609,-119059,-114570,66170,232421,38384
1025042,-114290,-107528,38593,316900,165578,-114455,226577,-119028,-114509,66227,232489,38357
1025043,-114269,-107510,38589,316930,165575,-114424,226578,-119003,-114477,66233,232533,38354
1025044,-114233,-107487,38630,316914,165541,-114368,226579,-118972,-114421,66286,232583,38394
1025045,-114198,-107470,38696,316931,165609,-114355,226542,-118978,-114406,66292,232706,38464
1025046,-114188,-107449,38788,316992,165727,-114363,226489,-118985,-114415,66243,232855,38552
1025047,-114170,-107449,38830,317014,165876,-114325,226475,-118954,-114377,66291,232946,38599
1025048,-114148,-107433,38871,317049,165922,-114307,226510,-118938,-114359,66318,232926,38638
1025049,-114153,-107431,38875,317088,165942,-114287,226594,-118929,-114341,66348,233031,38644
1025050,-114157,-107438,38871,317093,165976,-114297,226703,-118938,-114352,66358,233052,38635
1025051,-114182,-107440,38861,317109,165965,-114297,226736,-118950,-114350,66403,232968,38626
1025052,-114188,-107458,38832,317092,165967,-114336,226769,-118981,-114388,66373,232912,38597
1025053,-114220,-107458,38844,317075,165960,-114411,226753,-119013,-114462,66282,232893,38612
1025054,-114251,-107462,38836,316979,165901,-114439,226710,-119029,-114493,66200,232893,38603
1025055,-114272,-107470,38844,316929,165832,-114449,226685,-119045,-114503,66170,232844,38611
1025056,-114300,-107477,38855,316954,165822,-114474,226651,-119081,-114527,66161,232772,38620
1025057,-114316,-107476,38855,316992,165781,-114485,226586,-119100,-114539,66131,232638,38619
1025058,-114313,-107467,38869,317065,165721,-114496,226526,-119115,-114548,66068,232613,38634
1025059,-114283,-107452,38862,317027,165647,-114490,226464,-119106,-114544,66075,232576,38628
1025060,-114285,-107454,38895,317009,165624,-114462,226459,-119088,-114517,66087,232498,38658
1025061,-114272,-107423,38883,317004,165479,-114429,226528,-119040,-114479,66174,232477,38648
1025062,-114267,-107405,38877,317086,165272,-114412,226543,-118992,-114468,66266,232521,38645
1025063,-114285,-107388,38914,317129,165318,-114417,226607,-118984,-114469,66295,232578,38679
1025064,-114275,-107384,38945,317097,165479,-114418,226690,-118981,-114469,66298,232580,38710
1025065,-114267,-107371,38954,317110,165593,-114417,226745,-119000,-114470,66282,232704,38721
1025066,-114231,-107353,38989,317093,165709,-114418,226769,-118994,-114473,66255,232812,38756
1025067,-114192,-107319,39001,317086,165905,-114392,226793,-118986,-114443,66213,232881,38769
1025068,-114172,-107303,39011,317100,166021,-114375,226812,-118982,-114427,66214,232921,38777
1025069,-114156,-107267,39040,317165,166133,-114366,226831,-118976,-114423,66237,232892,38806
1025070,-114158,-107268,39021,317170,166177,-114327,226812,-118953,-114384,66303,232861,38788
1025071,-114176,-107270,39013,317214,166157,-114326,226794,-118955,-114378,66298,232865,38779
1025072,-114195,-107274,39001,317256,166101,-114342,226757,-118978,-114397,66231,232892,38766
1025073,-114210,-107306,38986,317222,166087,-114363,226703,-119010,-114415,66236,232788,38750
1025074,-114247,-107323,39012,317162,165976,-114375,226635,-119012,-114429,66268,232669,38778
1025075,-114318,-107349,39023,317087,165851,-114393,226565,-119034,-114445,66271,232775,38793
1025076,-114365,-107362,39057,317090,165832,-114477,226472,-119047,-114531,66205,232825,38824
1025077,-114359,-107371,39051,317094,165840,-114567,226459,-119050,-114620,66141,232742,38819
1025078,-114356,-107365,39051,317139,165842,-114660,226492,-119078,-114714,66086,232697,38817
1025079,-114363,-107395,39002,317145,165880,-114688,226460,-119095,-114743,66052,232716,38767
1025080,-114384,-107390,38978,317143,165918,-114662,226392,-119088,-114713,66053,232731,38744
1025081,-114373,-107365,39002,317167,165954,-114602,226351,-119075,-114656,66074,232687,38769
1025082,-114350,-107353,39025,317175,165908,-114507,226447,-119089,-114560,66103,232630,38790
1025083,-114345,-107346,39017,317186,165863,-114423,226520,-119095,-114474,66140,232652,38785
1025084,-114333,-107324,39032,317201,165818,-114370,226541,-119066,-114424,66195,232694,38803
1025085,-114329,-107326,39026,317177,165789,-114339,226633,-119054,-114393,66257,232802,38791
1025086,-114287,-107322,39008,317142,165779,-114318,226671,-119015,-114370,66313,232931,38774
1025087,-114232,-107299,39011,317170,165796,-114293,226727,-118996,-114347,66341,232971,38776
1025088,-114175,-107283,39029,317202,165773,-114298,226821,-118964,-114349,66347,232954,38796
1025089,-114144,-107270,39051,317251,165811,-114293,226859,-118950,-114344,66370,232949,38820
1025090,-114109,-107281,39092,317243,165805,-114294,226857,-118932,-114344,66415,232933,38855
1025091,-114109,-107300,39094,317211,165730,-114285,226878,-118921,-114339,66427,232936,38859
1025092,-114126,-107308,39078,317160,165603,-114309,226885,-118935,-114364,66401,232942,38844
1025093,-114150,-107312,39040,317103,165557,-114330,226848,-118961,-114383,66312,232923,38807
1025094,-114189,-107333,39036,317062,165616,-114380,226762,-119001,-114434,66239,232828,38803
1025095,-114204,-107340,39032,317063,165600,-114422,226701,-119029,-114473,66208,232701,38800
1025096,-114223,-107340,39015,317011,165638,-114423,226643,-119022,-114476,66159,232493,38782
1025097,-114205,-107327,38999,316993,165594,-114400,226527,-119009,-114454,66099,232362,38767
1025098,-114194,-107346,38948,316975,165612,-114428,226411,-119026,-114482,66074,232455,38715
1025099,-114216,-107367,38925,316894,165678,-114454,226376,-119053,-114505,66041,232533,38692
1025100,-114270,-107380,38926,316845,165771,-114445,226399,-119047,-114498,66071,232487,38691
1025101,-114315,-107390,38923,316808,165832,-114411,226465,-119014,-114462,66053,232422,38691
1025102,-114335,-107399,38914,316871,165798,-114417,226538,-119027,-114470,66115,232459,38678
1025103,-114294,-107396,38908,316982,165749,-114423,226519,-119028,-114475,66157,232546,38676
1025104,-114251,-107369,38920,317029,165705,-114437,226624,-119009,-114493,66179,232541,38689
1025105,-114256,-107381,38884,316993,165821,-114443,226677,-118994,-114496,66199,232642,38654
1025106,-114253,-107367,38890,317009,165810,-114449,226718,-118972,-114499,66219,232826,38654
1025107,-114189,-107338,38879,317063,165755,-114430,226784,-118940,-114481,66228,232934,38647
1025108,-114173,-107337,38871,317122,165736,-114399,226825,-118946,-114452,66273,233004,38633
1025109,-114167,-107325,38890,317200,165827,-114386,226863,-118960,-114440,66272,232925,38657
1025110,-114149,-107307,38933,317159,165886,-114353,226885,-118950,-114405,66302,232811,38700
1025111,-114139,-107303,38964,317090,165800,-114341,226906,-118950,-114395,66294,232752,38729
1025112,-114174,-107331,38950,317034,165775,-114341,226861,-118958,-114393,66276,232756,38715
1025113,-114210,-107352,38954,317038,165758,-114402,226805,-119032,-114455,66235,232710,38719
1025114,-114250,-107357,38941,317031,165755,-114439,226687,-119057,-114492,66208,232593,38705
1025115,-114285,-107392,38911,316969,165712,-114465,226560,-119076,-114520,66186,232633,38678
1025116,-114294,-107412,38890,316926,165705,-114508,226488,-119094,-114564,66167,232622,38658
1025117,-114314,-107436,38852,316903,165706,-114526,226432,-119121,-114581,66128,232557,38619
1025118,-114356,-107450,38827,316876,165660,-114529,226412,-119146,-114581,66114,232589,38594
1025119,-114413,-107462,38787,316839,165606,-114509,226387,-119152,-114561,66143,232636,38552
1025120,-114455,-107490,38781,316798,165593,-114524,226438,-119173,-114578,66149,232663,38550
1025121,-114448,-107479,38791,316749,165569,-114491,226494,-119161,-114545,66170,232679,38559
1025122,-114407,-107485,38818,316752,165562,-114486,226539,-119168,-114538,66182,232615,38585
1025123,-114370,-107469,38828,316783,165594,-114471,226588,-119170,-114524,66177,232583,38596
1025124,-114322,-107484,38835,316827,165646,-114468,226613,-119152,-114524,66183,232603,38599
1025125,-114292,-107470,38848,316936,165647,-114451,226648,-119135,-114504,66177,232627,38614
