Timestamp (ms),Ch0 (uV),Ch1 (uV),Ch2 (uV),Ch3 (uV),Ch4 (uV),Ch5 (uV),Ch6 (uV),Ch7 (uV),Ch8 (uV),Ch9 (uV),Ch10 (uV),Ch11 (uV)
997981,-115498,-108336,39243,314964,164688,-115818,226032,-120098,-115872,66496,232272,39009
997982,-115492,-108308,39227,315062,164562,-115854,226008,-120089,-115908,66498,232290,38991
997983,-115461,-108293,39196,315209,164579,-115862,225896,-120064,-115913,66477,232301,38964
997984,-115445,-108278,39149,315295,164740,-115829,225787,-120037,-115881,66452,232278,38914
997985,-115457,-108262,39198,315367,164702,-115781,225810,-120000,-115831,66502,232301,38966
997986,-115470,-108288,39253,315295,164849,-115753,225913,-119981,-115803,66497,232322,39019
997987,-115489,-108302,39255,315249,164997,-115730,226011,-119993,-115783,66543,232389,39020
997988,-115475,-108304,39255,315347,165066,-115699,226078,-120052,-115752,66590,232437,39022
997993,-115383,-108212,39234,315409,165313,-115695,226305,-120049,-115749,66647,232469,38999
997994,-115386,-108209,39281,315448,165283,-115726,226247,-120055,-115776,66568,232416,39048
997996,-115435,-108256,39347,315371,165234,-115751,226082,-120084,-115804,66478,232132,39113
997997,-115444,-108277,39349,315363,165179,-115772,226076,-120068,-115823,66388,232043,39114
997999,-115512,-108317,39263,315368,164926,-115843,226021,-120110,-115895,66293,232205,39033
998000,-115531,-108330,39209,315266,164762,-115826,226020,-120123,-115879,66372,232305,38970
998001,-115537,-108343,39189,315168,164719,-115800,225980,-120120,-115854,66383,232355,38953
998002,-115529,-108346,39138,315240,164740,-115758,225884,-120105,-115811,66432,232268,38903
998003,-115489,-108312,39038,315284,164716,-115749,225819,-120057,-115800,66486,232253,38803
998004,-115466,-108264,38979,315303,164688,-115814,225859,-120025,-115867,66534,232384,38745
998005,-115491,-108282,39051,315334,164770,-115826,225937,-120009,-115876,66560,232422,38818
998006,-115477,-108274,39144,315365,164800,-115847,226067,-119982,-115901,66574,232322,38908
998007,-115455,-108277,39281,315324,164773,-115798,226099,-119994,-115852,66599,232358,39044
998008,-115401,-108247,39343,315305,164722,-115724,226106,-119987,-115776,66646,232476,39110
998009,-115362,-108237,39309,315297,164819,-115671,226112,-120011,-115724,66678,232632,39073
998010,-115321,-108217,39221,315288,164937,-115594,226125,-119966,-115650,66732,232605,38986
998011,-115299,-108209,39176,315295,164969,-115559,226158,-119919,-115611,66804,232535,38940
998012,-115285,-108200,39246,315382,164988,-115551,226125,-119915,-115606,66772,232558,39011
998013,-115320,-108228,39333,315381,165035,-115566,226150,-119926,-115619,66679,232477,39099
998014,-115369,-108286,39377,315299,165186,-115612,226194,-120016,-115664,66669,232409,39147
998015,-115430,-108302,39371,315315,165243,-115666,226188,-120084,-115720,66625,232293,39137
998016,-115464,-108328,39297,315343,165221,-115718,226162,-120135,-115773,66495,232349,39066
998017,-115483,-108342,39228,315346,165148,-115739,226168,-120167,-115790,66455,232408,38997
998018,-115510,-108369,39176,315270,165106,-115759,226113,-120180,-115814,66478,232403,38944
998019,-115516,-108386,39174,315226,165057,-115774,226059,-120151,-115827,66462,232328,38942
998020,-115507,-108386,39153,315246,165033,-115788,226048,-120128,-115841,66478,232188,38918
998021,-115504,-108387,39131,315274,164978,-115775,226056,-120083,-115827,66482,231996,38897
998022,-115498,-108366,39145,315291,164859,-115761,226081,-120070,-115816,66410,232055,38909
998023,-115490,-108360,39181,315265,164750,-115751,226091,-120075,-115805,66366,232293,38948
998024,-115496,-108366,39162,315153,164739,-115702,226082,-120035,-115756,66466,232435,38928
998025,-115467,-108353,39140,315083,164730,-115663,226148,-120013,-115714,66549,232511,38908
998026,-115449,-108343,39127,315061,164802,-115697,226208,-119967,-115752,66584,232619,38892
998027,-115417,-108349,39160,315122,164876,-115731,226219,-119970,-115787,66552,232698,38927
998028,-115385,-108329,39175,315183,164954,-115705,226222,-119942,-115758,66600,232737,38942
998029,-115373,-108302,39207,315194,165091,-115653,226213,-119899,-115710,66657,232772,38973
998030,-115348,-108279,39241,315260,165006,-115625,226226,-119866,-115677,66713,232806,39008
998031,-115314,-108261,39317,315367,164906,-115612,226267,-119817,-115668,66735,232782,39082
998032,-115275,-108218,39370,315361,164943,-115605,226298,-119788,-115660,66734,232585,39132
998033,-115225,-108205,39393,315336,165057,-115607,226244,-119795,-115662,66652,232440,39159
998034,-115200,-108174,39392,315368,165089,-115611,226194,-119830,-115664,66586,232280,39155
998035,-115208,-108194,39390,315368,164972,-115629,226207,-119870,-115680,66602,232036,39156
998036,-115263,-108221,39367,315346,164979,-115638,226169,-119922,-115692,66613,231919,39132
998037,-115328,-108225,39269,315409,165010,-115658,226169,-119948,-115709,66518,231890,39036
998038,-115396,-108256,39151,315380,165076,-115696,226144,-119972,-115752,66474,231990,38918
998039,-115445,-108304,39085,315335,165072,-115703,226135,-120023,-115757,66429,232169,38852
998040,-115490,-108360,39080,315309,164804,-115683,226160,-120049,-115735,66493,232360,38846
998041,-115491,-108367,39125,315245,164706,-115693,226145,-120033,-115748,66602,232260,38889
998042,-115496,-108389,39138,315232,164653,-115703,226162,-120005,-115757,66664,232272,38904
998043,-115495,-108411,39162,315235,164746,-115779,226158,-120005,-115831,66626,232483,38929
998044,-115477,-108399,39223,315333,164865,-115861,226129,-120028,-115914,66522,232647,38990
998045,-115469,-108382,39286,315285,164972,-115832,226087,-120018,-115882,66522,232763,39055
998046,-115435,-108355,39331,315272,165096,-115777,226074,-119989,-115830,66554,232790,39098
998047,-115411,-108355,39360,315299,165199,-115693,226073,-119981,-115745,66554,232794,39124
998048,-115411,-108338,39348,315389,165281,-115616,226135,-119967,-115671,66561,232848,39114
998049,-115335,-108321,39322,315453,165359,-115560,226231,-119948,-115609,66517,232845,39091
998050,-115308,-108306,39324,315563,165343,-115542,226294,-119939,-115595,66571,232825,39089
998051,-115290,-108267,39376,315659,165339,-115522,226366,-119921,-115579,66611,232676,39139
998052,-115242,-108260,39373,315642,165336,-115538,226421,-119896,-115593,66630,232652,39135
998053,-115202,-108261,39342,315682,165305,-115587,226439,-119908,-115640,66676,232594,39106
998054,-115246,-108250,39318,315706,165275,-115620,226410,-119936,-115674,66671,232548,39081
998055,-115286,-108280,39293,315635,165185,-115661,226345,-119963,-115715,66622,232695,39055
998056,-115305,-108273,39303,315505,165065,-115670,226298,-119957,-115724,66633,232628,39069
998057,-115317,-108292,39333,315344,164999,-115697,226265,-119956,-115750,66716,232613,39096
998058,-115341,-108322,39281,315237,164979,-115679,226204,-119971,-115733,66666,232671,39045
998059,-115391,-108339,39269,315188,164972,-115630,226181,-119986,-115680,66642,232608,39037
998060,-115426,-108344,39259,315120,164988,-115576,226175,-119960,-115628,66658,232501,39023
998061,-115431,-108357,39249,315129,164979,-115613,226156,-119980,-115669,66700,232450,39013
998062,-115419,-108365,39240,315141,165010,-115646,226147,-119995,-115700,66691,232515,39006
998063,-115380,-108366,39241,315212,165038,-115626,226160,-120000,-115678,66694,232535,39007
998064,-115374,-108352,39225,315195,165067,-115566,226155,-119954,-115620,66720,232567,38992
998065,-115346,-108323,39245,315197,165085,-115565,226140,-119928,-115619,66742,232691,39009
998066,-115332,-108312,39218,315254,165082,-115559,226222,-119904,-115612,66779,232747,38983
998067,-115310,-108285,39263,315266,165079,-115572,226328,-119875,-115625,66830,232690,39027
998068,-115252,-108257,39281,315313,165168,-115565,226388,-119861,-115616,66857,232682,39045
998069,-115180,-108219,39315,315431,165120,-115546,226417,-119799,-115603,66805,232726,39079
998070,-115171,-108184,39360,315473,165199,-115588,226478,-119756,-115641,66815,232692,39125
998071,-115152,-108190,39383,315419,165236,-115602,226525,-119720,-115657,66838,232816,39145
998072,-115114,-108172,39433,315404,165209,-115564,226514,-119691,-115618,66744,232870,39198
998073,-115078,-108163,39442,315458,165108,-115504,226496,-119683,-115557,66703,232808,39209
998074,-115113,-108175,39394,315510,165122,-115486,226428,-119767,-115538,66750,232796,39157
998075,-115208,-108211,39326,315508,165218,-115544,226381,-119853,-115599,66751,232808,39088
998076,-115252,-108239,39325,315517,165253,-115592,226314,-119923,-115644,66745,232712,39091
998077,-115266,-108254,39290,315527,165277,-115585,226308,-119934,-115640,66804,232422,39053
998078,-115295,-108277,39282,315496,165232,-115579,226318,-119926,-115635,66856,232197,39047
998079,-115324,-108281,39287,315495,165174,-115593,226238,-119949,-115645,66818,232257,39054
998080,-115352,-108304,39267,315523,165057,-115642,226171,-119979,-115696,66732,232531,39029
998081,-115302,-108332,39260,315473,164945,-115626,226130,-119954,-115681,66696,232601,39027
998082,-115261,-108323,39263,315368,164993,-115608,226047,-119915,-115659,66678,232659,39027
998083,-115230,-108296,39292,315363,165017,-115563,225972,-119876,-115613,66694,232686,39055
998084,-115198,-108261,39309,315395,165066,-115548,225948,-119867,-115603,66753,232604,39073
998085,-115209,-108254,39294,315337,165180,-115520,226061,-119847,-115575,66816,232630,39060
998086,-115204,-108222,39300,315412,165223,-115531,226150,-119854,-115584,66804,232716,39063
998087,-115153,-108193,39357,315482,165137,-115512,226255,-119829,-115565,66821,232679,39122
998088,-115100,-108149,39447,315499,165111,-115463,226380,-119776,-115513,66861,232561,39213
998089,-115057,-108119,39517,315485,165141,-115442,226461,-119766,-115494,66890,232603,39282
998090,-115073,-108121,39522,315520,165192,-115434,226523,-119769,-115486,66872,232836,39286
998091,-115075,-108104,39487,315527,165192,-115444,226675,-119770,-115496,66887,232937,39249
998092,-115094,-108110,39502,315542,165238,-115485,226747,-119799,-115540,66957,232923,39266
998093,-115105,-108116,39497,315620,165321,-115522,226696,-119833,-115573,66953,232942,39262
998094,-115106,-108122,39411,315644,165358,-115541,226639,-119846,-115596,66844,232940,39176
998095,-115133,-108121,39375,315597,165292,-115542,226559,-119870,-115596,66832,232956,39139
998096,-115153,-108118,39386,315486,165187,-115546,226483,-119876,-115595,66860,232868,39149
998097,-115184,-108126,39429,315461,165148,-115552,226400,-119906,-115606,66804,232834,39194
998098,-115252,-108131,39452,315418,165117,-115562,226331,-119920,-115616,66760,232840,39218
998099,-115263,-108143,39474,315448,165186,-115583,226268,-119922,-115634,66758,232626,39240
998100,-115276,-108138,39479,315527,165169,-115565,226248,-119906,-115618,66773,232360,39242
998101,-115261,-108124,39521,315590,165011,-115612,226279,-119923,-115665,66722,232345,39283
998102,-115274,-108144,39424,315546,165059,-115606,226292,-119919,-115657,66703,232445,39187
998103,-115275,-108168,39341,315451,165313,-115584,226332,-119904,-115634,66745,232436,39104
998104,-115244,-108137,39377,315436,165414,-115531,226351,-119872,-115586,66802,232294,39142
998105,-115234,-108118,39514,315446,165462,-115540,226333,-119852,-115594,66733,232412,39279
998106,-115199,-108081,39609,315501,165428,-115561,226339,-119839,-115613,66599,232662,39376
998107,-115165,-108053,39648,315575,165457,-115562,226378,-119814,-115616,66592,232659,39414
998108,-115156,-108047,39667,315660,165560,-115516,226430,-119774,-115570,66677,232623,39430
998109,-115125,-108012,39692,315741,165594,-115452,226438,-119761,-115506,66733,232675,39457
998110,-115097,-107987,39714,315793,165414,-115401,226503,-119743,-115455,66810,232802,39479
998111,-115096,-107963,39697,315825,165333,-115357,226557,-119740,-115408,66891,232984,39466
998112,-115106,-107947,39764,315808,165246,-115391,226587,-119748,-115443,66936,233101,39528
998113,-115115,-107958,39767,315845,165258,-115444,226572,-119762,-115497,66965,233095,39532
998114,-115122,-107968,39760,315819,165305,-115475,226564,-119755,-115532,66843,233109,39522
998115,-115137,-107979,39697,315760,165355,-115545,226497,-119783,-115598,66853,233102,39459
998116,-115146,-108000,39667,315704,165348,-115524,226434,-119799,-115576,66890,233022,39430
998117,-115097,-107994,39697,315752,165330,-115463,226344,-119804,-115516,66925,232850,39463
998118,-115126,-107996,39688,315806,165286,-115414,226256,-119811,-115469,66970,232745,39451
998119,-115136,-107997,39700,315876,165244,-115422,226231,-119814,-115476,66978,232659,39463
998120,-115127,-108007,39655,315840,165242,-115473,226264,-119797,-115531,66959,232667,39420
998121,-115110,-108016,39596,315753,165244,-115495,226292,-119748,-115546,66841,232772,39359
998122,-115096,-108007,39564,315772,165199,-115485,226354,-119709,-115537,66701,232855,39331
998123,-115093,-107994,39513,315754,165191,-115447,226417,-119707,-115499,66711,232942,39277
998124,-115063,-107975,39486,315716,165249,-115434,226497,-119728,-115488,66792,232913,39249
998125,-115022,-107951,39568,315820,165310,-115436,226499,-119740,-115491,66894,232700,39335
998126,-115010,-107938,39644,315864,165390,-115364,226485,-119748,-115418,66984,232602,39410
998127,-114998,-107952,39713,315791,165477,-115364,226480,-119777,-115417,66995,232738,39477
998128,-115013,-107945,39742,315787,165546,-115345,226485,-119752,-115402,67072,232839,39505
998129,-114993,-107948,39739,315783,165463,-115313,226486,-119698,-115368,67183,232971,39501
998130,-114962,-107930,39725,315778,165433,-115274,226507,-119661,-115329,67231,233044,39488
998131,-114942,-107907,39730,315787,165484,-115278,226477,-119630,-115332,67269,233058,39491
998132,-114949,-107914,39729,315789,165547,-115287,226452,-119614,-115340,67221,233091,39492
998133,-114947,-107922,39749,315811,165528,-115313,226466,-119638,-115364,67122,233051,39511
998134,-114969,-107932,39731,315784,165486,-115317,226481,-119628,-115367,67089,232922,39492
998135,-115020,-107978,39691,315787,165541,-115386,226441,-119684,-115439,67044,232819,39456
998136,-115065,-108003,39632,315796,165524,-115438,226373,-119688,-115493,67009,232732,39396
998137,-115106,-107996,39613,315833,165431,-115469,226305,-119695,-115523,66947,232670,39379
998138,-115162,-108026,39585,315725,165274,-115486,226322,-119708,-115540,66923,232685,39350
998139,-115198,-108022,39606,315577,165214,-115596,226306,-119704,-115648,66893,232762,39370
998140,-115212,-108048,39584,315481,165293,-115664,226200,-119744,-115716,66813,232884,39349
998141,-115197,-108066,39559,315374,165296,-115609,226220,-119749,-115661,66772,232785,39324
998142,-115207,-108069,39564,315453,165221,-115554,226219,-119742,-115609,66723,232715,39330
998143,-115219,-108078,39584,315459,165236,-115498,226247,-119776,-115552,66746,232731,39350
998144,-115217,-108057,39588,315426,165226,-115394,226267,-119779,-115447,66788,232737,39352
998145,-115170,-108044,39568,315417,165336,-115335,226267,-119767,-115386,66763,232694,39337
998146,-115140,-108023,39574,315458,165371,-115284,226298,-119748,-115336,66807,232640,39338
998147,-115162,-107991,39553,315522,165285,-115250,226390,-119715,-115302,66918,232542,39317
998148,-115152,-107956,39513,315597,165227,-115246,226521,-119661,-115299,66979,232516,39277
998149,-115107,-107943,39495,315618,165223,-115265,226654,-119677,-115316,66990,232592,39261
998150,-115103,-107952,39485,315532,165278,-115245,226733,-119688,-115299,67037,232714,39249
998151,-115079,-107941,39461,315620,165330,-115244,226697,-119721,-115295,66980,232817,39225
998152,-115105,-107944,39478,315653,165302,-115265,226647,-119739,-115315,66930,233030,39241
998153,-115148,-107965,39455,315692,165308,-115306,226585,-119773,-115358,66897,233129,39219
998154,-115171,-108019,39420,315681,165305,-115330,226534,-119787,-115383,66854,233138,39184
998155,-115191,-108066,39373,315683,165293,-115345,226474,-119817,-115399,66829,233054,39142
998156,-115214,-108069,39370,315629,165287,-115412,226409,-119856,-115464,66782,232933,39136
998157,-115224,-108093,39405,315613,165320,-115477,226317,-119864,-115531,66754,232808,39171
998158,-115252,-108124,39437,315515,165280,-115521,226227,-119862,-115575,66728,232814,39201
998159,-115281,-108150,39477,315499,165280,-115546,226109,-119878,-115599,66665,232802,39243
998160,-115306,-108180,39432,315486,165174,-115514,226098,-119872,-115565,66696,232752,39197
998161,-115314,-108194,39335,315495,165104,-115501,226137,-119846,-115555,66742,232625,39100
998162,-115298,-108200,39325,315414,165064,-115486,226233,-119843,-115541,66843,232465,39089
998163,-115260,-108177,39312,315352,164969,-115453,226297,-119830,-115507,66949,232452,39077
998164,-115247,-108167,39297,315412,164871,-115472,226314,-119830,-115526,66896,232663,39063
998165,-115225,-108166,39317,315408,164893,-115495,226324,-119811,-115550,66815,232891,39080
998166,-115186,-108153,39317,315447,164924,-115467,226376,-119755,-115525,66729,232899,39081
998167,-115177,-108146,39352,315382,164957,-115407,226443,-119724,-115461,66794,232830,39114
998168,-115162,-108138,39398,315387,165018,-115343,226463,-119712,-115395,66857,232837,39162
998169,-115147,-108132,39448,315435,165048,-115281,226526,-119695,-115333,66905,232778,39215
998170,-115119,-108118,39457,315503,165128,-115312,226565,-119719,-115368,66934,232830,39217
998171,-115123,-108101,39374,315564,165320,-115351,226568,-119744,-115402,66968,232895,39137
998172,-115107,-108084,39299,315574,165442,-115370,226569,-119744,-115424,66959,232850,39064
998173,-115119,-108089,39336,315480,165463,-115401,226544,-119761,-115452,67009,232765,39100
998174,-115151,-108101,39364,315346,165435,-115407,226502,-119779,-115463,66971,232756,39127
998175,-115146,-108115,39376,315352,165330,-115427,226334,-119804,-115478,66935,232738,39143
998176,-115176,-108151,39411,315440,165164,-115450,226249,-119826,-115501,66887,232659,39175
998177,-115214,-108188,39370,315584,165025,-115490,226272,-119805,-115541,66868,232520,39135
998178,-115270,-108214,39291,315607,165048,-115617,226304,-119778,-115668,66798,232430,39058
998179,-115290,-108224,39199,315566,165141,-115723,226333,-119802,-115774,66660,232495,38968
998180,-115295,-108247,39145,315496,165172,-115729,226331,-119828,-115782,66626,232566,38911
998181,-115320,-108270,39123,315395,165078,-115613,226328,-119838,-115668,66665,232529,38887
998182,-115326,-108273,39193,315358,165039,-115482,226307,-119822,-115536,66637,232406,38955
998183,-115296,-108245,39311,315325,165005,-115401,226289,-119826,-115451,66608,232362,39075
998184,-115280,-108224,39353,315380,164961,-115393,226327,-119847,-115445,66606,232358,39117
998185,-115238,-108206,39338,315396,164916,-115404,226358,-119829,-115457,66635,232476,39101
998186,-115224,-108184,39314,315410,165014,-115408,226433,-119772,-115462,66681,232390,39080
998187,-115217,-108194,39296,315412,165030,-115391,226457,-119756,-115445,66644,232570,39057
998188,-115233,-108200,39262,315429,165113,-115386,226467,-119731,-115441,66630,232886,39029
998189,-115196,-108168,39296,315524,165229,-115419,226504,-119743,-115473,66641,232896,39060
998190,-115147,-108142,39331,315618,165271,-115435,226542,-119727,-115488,66735,232743,39094
998191,-115113,-108153,39340,315593,165390,-115413,226590,-119699,-115463,66791,232586,39103
998192,-115111,-108157,39383,315550,165411,-115413,226538,-119709,-115466,66856,232698,39148
998193,-115144,-108194,39403,315527,165349,-115430,226388,-119757,-115486,66905,232931,39167
998194,-115186,-108220,39395,315485,165274,-115429,226296,-119755,-115481,66952,232962,39165
998195,-115228,-108217,39378,315482,165197,-115426,226297,-119755,-115476,66988,232706,39146
998196,-115255,-108240,39321,315464,165102,-115467,226269,-119773,-115517,66955,232670,39088
998197,-115251,-108261,39281,315458,165051,-115483,226234,-119771,-115535,66825,232692,39049
998198,-115246,-108240,39291,315425,165085,-115515,226257,-119752,-115567,66718,232432,39057
998199,-115251,-108242,39289,315308,165073,-115547,226318,-119756,-115605,66611,232350,39054
998200,-115275,-108257,39272,315251,164973,-115571,226287,-119777,-115624,66607,232428,39036
998201,-115280,-108283,39243,315288,164998,-115575,226157,-119768,-115627,66549,232526,39008
998202,-115328,-108276,39212,315314,165047,-115584,226104,-119768,-115636,66575,232566,38976
998203,-115311,-108256,39177,315308,165015,-115537,226109,-119785,-115594,66654,232603,38943
998204,-115305,-108218,39175,315312,164927,-115497,226113,-119808,-115549,66699,232740,38940
998205,-115283,-108213,39135,315246,164911,-115475,226224,-119785,-115529,66787,232805,38900
998206,-115247,-108199,39156,315223,165006,-115427,226280,-119827,-115482,66854,232852,38921
998207,-115225,-108176,39189,315181,165101,-115434,226373,-119838,-115486,66866,232831,38955
998208,-115187,-108162,39252,315282,165137,-115412,226450,-119789,-115464,66899,232768,39016
998209,-115153,-108128,39312,315398,165087,-115388,226549,-119748,-115444,66865,232746,39076
998210,-115107,-108107,39376,315461,165054,-115391,226613,-119725,-115444,66816,232822,39138
998211,-115048,-108088,39421,315396,164969,-115401,226680,-119674,-115451,66879,232856,39185
998212,-115026,-108054,39460,315418,164851,-115425,226777,-119686,-115476,66804,232862,39225
998213,-115048,-108078,39441,315439,164909,-115483,226768,-119704,-115537,66826,232852,39205
998214,-115113,-108109,39343,315422,165097,-115543,226646,-119750,-115592,66917,232822,39111
998215,-115150,-108100,39232,315378,165195,-115520,226520,-119777,-115570,66846,232791,38998
998216,-115154,-108098,39173,315339,165071,-115463,226429,-119758,-115516,66807,232668,38939
998217,-115154,-108117,39154,315299,165051,-115444,226376,-119760,-115497,66777,232577,38919
998218,-115243,-108160,39142,315222,165134,-115471,226346,-119773,-115525,66753,232567,38906
998219,-115283,-108206,39137,315129,165243,-115571,226324,-119748,-115627,66714,232577,38903
998220,-115323,-108245,39205,315198,165168,-115610,226351,-119761,-115665,66682,232528,38971
998221,-115360,-108283,39193,315294,165087,-115642,226313,-119783,-115694,66682,232548,38958
998222,-115332,-108280,39205,315390,165057,-115639,226262,-119778,-115690,66671,232515,38967
998223,-115300,-108278,39207,315455,165101,-115651,226259,-119766,-115706,66682,232552,38970
998224,-115290,-108274,39193,315496,165216,-115633,226310,-119771,-115687,66714,232486,38955
998225,-115261,-108243,39187,315549,165237,-115593,226355,-119752,-115648,66719,232463,38951
998226,-115218,-108217,39223,315572,165231,-115522,226362,-119726,-115578,66699,232517,38986
998227,-115199,-108206,39294,315542,165173,-115478,226388,-119704,-115528,66757,232471,39058
998228,-115172,-108169,39361,315527,165185,-115419,226424,-119695,-115472,66819,232527,39123
998229,-115129,-108145,39395,315539,165182,-115419,226460,-119698,-115472,66818,232703,39162
998230,-115115,-108138,39415,315606,165208,-115439,226445,-119709,-115491,66820,232895,39181
998231,-115109,-108131,39390,315541,165287,-115419,226514,-119711,-115470,66892,232979,39156
998232,-115087,-108130,39347,315508,165396,-115420,226551,-119721,-115469,66926,232951,39114
998233,-115113,-108127,39333,315510,165347,-115406,226562,-119703,-115458,66938,232896,39098
998234,-115129,-108129,39325,315517,165237,-115404,226543,-119712,-115456,66863,232909,39091
998235,-115172,-108144,39341,315448,165109,-115420,226526,-119720,-115472,66849,232881,39105
998236,-115202,-108180,39343,315411,165002,-115449,226458,-119722,-115501,66810,232844,39111
998237,-115230,-108202,39317,315366,164975,-115456,226430,-119734,-115507,66733,232852,39082
998238,-115271,-108215,39306,315357,164911,-115485,226354,-119760,-115539,66714,232809,39070
998239,-115289,-108211,39301,315371,164830,-115502,226274,-119764,-115555,66756,232713,39066
998240,-115323,-108216,39265,315368,164872,-115510,226229,-119785,-115564,66745,232654,39032
998241,-115329,-108210,39225,315333,164986,-115502,226196,-119792,-115556,66747,232543,38989
998242,-115290,-108200,39276,315271,165021,-115479,226217,-119780,-115531,66732,232412,39042
998243,-115323,-108150,39353,315241,165019,-115488,226259,-119769,-115543,66727,232383,39117
998244,-115337,-108121,39381,315264,165027,-115544,226303,-119768,-115597,66682,232467,39147
998245,-115286,-108105,39411,315307,165135,-115560,226308,-119773,-115615,66676,232464,39172
998246,-115221,-108076,39383,315331,165131,-115532,226312,-119724,-115586,66743,232481,39151
998247,-115168,-108052,39393,315372,165187,-115494,226323,-119704,-115551,66713,232461,39152
998248,-115129,-108020,39432,315527,165190,-115436,226328,-119683,-115489,66645,232486,39196
998249,-115129,-108008,39437,315659,165201,-115382,226297,-119682,-115435,66618,232596,39203
998250,-115134,-108003,39435,315743,165215,-115356,226329,-119654,-115413,66573,232723,39200
998251,-115164,-108010,39507,315793,165144,-115376,226433,-119656,-115428,66592,232836,39271
998252,-115221,-108041,39531,315774,165255,-115454,226480,-119691,-115509,66620,232961,39293
998253,-115223,-108069,39542,315741,165333,-115498,226453,-119724,-115553,66666,232892,39307
998254,-115193,-108070,39535,315705,165230,-115494,226438,-119721,-115548,66765,232640,39302
998255,-115159,-108065,39519,315653,165095,-115462,226405,-119724,-115517,66854,232275,39281
998256,-115174,-108065,39542,315559,165090,-115486,226322,-119768,-115540,66771,232209,39306
998257,-115175,-108070,39507,315488,165068,-115540,226260,-119792,-115590,66670,232273,39272
998258,-115213,-108092,39430,315340,164995,-115541,226244,-119763,-115597,66725,232200,39196
998259,-115262,-108107,39387,315343,164851,-115595,226213,-119747,-115647,66718,232270,39149
998260,-115291,-108132,39336,315437,164760,-115695,226059,-119799,-115745,66695,232577,39102
998261,-115385,-108174,39311,315392,164831,-115743,225908,-119892,-115799,66702,232894,39076
998262,-115397,-108191,39291,315302,164829,-115713,225940,-119847,-115766,66663,232908,39055
998263,-115364,-108183,39263,315279,164875,-115628,226030,-119818,-115681,66593,232790,39027
998264,-115349,-108168,39268,315314,164960,-115600,226089,-119826,-115654,66581,232677,39032
998265,-115318,-108148,39331,315379,164964,-115641,226221,-119823,-115695,66545,232645,39098
998266,-115249,-108121,39447,315477,165043,-115627,226207,-119819,-115679,66461,232577,39214
998267,-115205,-108140,39475,315361,165156,-115587,226136,-119804,-115640,66481,232675,39239
998268,-115218,-108124,39409,315353,165198,-115494,226210,-119774,-115547,66550,232814,39175
998269,-115275,-108137,39319,315361,165281,-115447,226340,-119744,-115500,66623,232929,39085
998270,-115272,-108130,39325,315359,165343,-115447,226317,-119770,-115500,66797,232996,39091
998271,-115212,-108112,39321,315422,165238,-115450,226340,-119733,-115503,66865,232958,39083
998272,-115205,-108112,39283,315515,165260,-115475,226414,-119723,-115526,66857,232861,39047
998273,-115224,-108121,39324,315494,165368,-115540,226433,-119734,-115593,66900,232669,39090
998274,-115272,-108125,39402,315457,165374,-115580,226397,-119737,-115634,66877,232515,39167
998275,-115317,-108128,39421,315502,165296,-115622,226374,-119774,-115671,66770,232466,39184
998276,-115342,-108159,39458,315488,165151,-115607,226340,-119822,-115661,66720,232369,39224
998277,-115369,-108160,39501,315488,165007,-115585,226274,-119851,-115637,66677,232326,39265
998278,-115396,-108175,39427,315486,164859,-115570,226235,-119906,-115624,66670,232331,39193
998279,-115473,-108216,39291,315417,164802,-115550,226221,-119905,-115602,66667,232479,39060
998280,-115504,-108252,39216,315375,164929,-115588,226205,-119941,-115638,66564,232570,38978
998281,-115514,-108270,39219,315375,164966,-115616,226210,-119970,-115668,66541,232453,38987
998282,-115503,-108281,39240,315331,164948,-115610,226258,-119945,-115664,66603,232303,39007
998283,-115492,-108276,39277,315346,165027,-115596,226207,-119935,-115649,66638,232275,39039
998284,-115488,-108280,39280,315331,164967,-115577,226169,-119931,-115628,66638,232478,39046
998285,-115450,-108269,39263,315294,165011,-115540,226151,-119894,-115593,66621,232611,39028
998286,-115403,-108263,39272,315331,165104,-115556,226169,-119867,-115608,66614,232648,39041
998287,-115373,-108264,39302,315365,165057,-115583,226238,-119832,-115636,66624,232647,39068
998288,-115298,-108225,39352,315424,165058,-115645,226294,-119778,-115694,66675,232629,39116
998289,-115249,-108205,39374,315457,165112,-115656,226320,-119757,-115709,66656,232685,39140
998290,-115231,-108201,39379,315454,165112,-115626,226379,-119757,-115680,66687,232738,39144
998291,-115207,-108163,39380,315515,164898,-115541,226410,-119724,-115593,66788,232740,39145
998292,-115159,-108130,39273,315449,164809,-115486,226485,-119696,-115539,66819,232713,39041
998293,-115173,-108136,39208,315436,164783,-115499,226509,-119738,-115551,66803,232769,38972
998294,-115146,-108147,39194,315393,164592,-115475,226479,-119736,-115528,66789,232684,38959
998295,-115155,-108179,39218,315355,164554,-115498,226429,-119737,-115550,66676,232558,38982
998296,-115208,-108242,39231,315172,164608,-115509,226373,-119750,-115565,66612,232583,38993
998297,-115271,-108270,39193,315091,164515,-115502,226278,-119782,-115553,66676,232676,38958
998298,-115360,-108304,39137,315015,164580,-115517,226176,-119818,-115573,66697,232661,38903
998299,-115414,-108301,39092,315029,164824,-115576,226113,-119893,-115630,66681,232498,38853
998300,-115419,-108290,39106,315084,164999,-115591,226020,-119936,-115644,66655,232261,38871
998301,-115445,-108312,39191,315185,165058,-115644,225966,-119958,-115700,66572,232136,38957
998302,-115447,-108300,39283,315262,165178,-115682,225954,-119975,-115733,66468,231971,39045
998303,-115401,-108277,39295,315299,165283,-115643,226019,-119949,-115694,66453,231731,39061
998304,-115332,-108255,39191,315238,165310,-115616,226162,-119919,-115670,66523,231630,38958
998305,-115311,-108270,39110,315281,165252,-115665,226269,-119928,-115720,66438,231925,38875
998306,-115312,-108287,39121,315232,165190,-115681,226340,-119948,-115734,66457,232284,38887
998307,-115303,-108280,39135,315209,165152,-115658,226307,-119964,-115711,66575,232436,38899
998308,-115302,-108278,39111,315274,165179,-115647,226277,-119965,-115699,66579,232754,38874
998309,-115306,-108286,39121,315368,165212,-115637,226267,-119944,-115694,66519,233018,38888
998310,-115324,-108274,39138,315482,165178,-115624,226268,-119910,-115676,66591,233036,38905
998311,-115286,-108257,39168,315547,165112,-115587,226246,-119882,-115640,66674,233049,38931
998312,-115227,-108234,39218,315624,165125,-115602,226116,-119845,-115653,66689,232946,38983
998313,-115224,-108225,39220,315562,165178,-115602,226044,-119831,-115652,66689,232926,38987
998314,-115256,-108261,39184,315435,165177,-115616,226044,-119836,-115669,66662,232946,38949
998315,-115334,-108288,39151,315362,165148,-115600,226051,-119851,-115656,66660,232861,38919
998316,-115407,-108310,39100,315343,165071,-115620,226079,-119878,-115672,66671,232767,38865
998317,-115411,-108312,39115,315334,164967,-115612,226095,-119853,-115664,66614,232620,38881
998318,-115434,-108324,39122,315308,164885,-115612,226104,-119860,-115669,66566,232453,38886
998319,-115399,-108320,39082,315293,164781,-115624,226109,-119863,-115676,66540,232312,38848
998320,-115353,-108307,39079,315222,164572,-115610,226147,-119829,-115663,66518,232242,38844
998321,-115377,-108325,39048,315169,164546,-115610,226190,-119818,-115664,66480,232247,38810
998322,-115417,-108343,39031,315145,164701,-115666,226222,-119851,-115721,66413,232372,38794
998323,-115441,-108349,39010,315142,164867,-115660,226247,-119861,-115712,66403,232460,38774
998324,-115382,-108337,39015,315080,164975,-115643,226225,-119791,-115696,66457,232390,38777
998325,-115358,-108324,39042,315066,164924,-115613,226269,-119758,-115668,66540,232387,38803
998326,-115323,-108295,39073,315060,164923,-115604,226336,-119751,-115655,66596,232414,38834
998327,-115286,-108271,39110,315017,165026,-115615,226324,-119748,-115666,66693,232340,38875
998328,-115261,-108230,39123,315098,165013,-115597,226382,-119746,-115647,66789,232350,38888
998329,-115231,-108218,39124,315229,164955,-115606,226464,-119765,-115657,66761,232556,38889
998330,-115190,-108184,39114,315317,164955,-115620,226540,-119783,-115677,66742,232672,38878
998331,-115193,-108200,39111,315381,165072,-115673,226554,-119783,-115727,66757,232771,38876
998332,-115202,-108199,39172,315365,165235,-115694,226516,-119781,-115746,66729,232748,38937
998333,-115208,-108209,39262,315421,165287,-115761,226445,-119788,-115812,66672,232689,39028
998334,-115228,-108198,39293,315455,165246,-115859,226405,-119810,-115911,66619,232693,39058
998335,-115236,-108205,39284,315466,165213,-115910,226390,-119839,-115963,66579,232563,39051
998336,-115277,-108253,39244,315383,165118,-115821,226343,-119855,-115873,66602,232464,39010
998337,-115320,-108266,39244,315301,164982,-115663,226209,-119847,-115717,66638,232391,39013
998338,-115333,-108253,39288,315327,164840,-115568,226064,-119866,-115622,66512,232389,39050
998339,-115342,-108245,39252,315329,164674,-115543,225989,-119913,-115596,66473,232475,39015
998340,-115382,-108249,39176,315321,164585,-115540,226045,-119912,-115594,66461,232495,38939
998341,-115426,-108260,39079,315197,164649,-115544,226128,-119899,-115599,66539,232418,38841
998342,-115425,-108272,39031,315157,164594,-115563,226166,-119881,-115617,66556,232493,38794
998343,-115415,-108262,39072,315058,164530,-115536,226229,-119823,-115589,66596,232556,38837
998344,-115372,-108240,39080,314985,164591,-115523,226254,-119802,-115579,66655,232523,38846
998345,-115364,-108238,39082,315058,164737,-115536,226221,-119830,-115593,66697,232602,38846
998346,-115362,-108197,39141,315188,164739,-115596,226215,-119858,-115651,66713,232739,38905
998347,-115377,-108180,39149,315249,164901,-115633,226281,-119889,-115687,66688,232821,38915
998348,-115350,-108146,39166,315337,164954,-115592,226380,-119934,-115646,66730,232836,38932
998349,-115295,-108125,39155,315406,164992,-115551,226399,-119883,-115605,66784,232773,38921
998350,-115265,-108093,39217,315435,165060,-115487,226396,-119842,-115537,66776,232715,38984
998351,-115234,-108082,39287,315440,165163,-115450,226354,-119773,-115502,66746,232722,39052
998352,-115184,-108056,39353,315470,165137,-115453,226364,-119736,-115507,66719,232541,39120
998353,-115174,-108041,39395,315479,165087,-115469,226405,-119690,-115523,66781,232324,39157
998354,-115212,-108039,39423,315502,165065,-115509,226362,-119719,-115561,66739,232251,39186
998355,-115257,-108065,39426,315479,165093,-115556,226337,-119741,-115607,66635,232152,39193
998356,-115295,-108120,39405,315417,165126,-115600,226335,-119805,-115654,66537,232214,39169
998357,-115328,-108141,39356,315373,165168,-115652,226255,-119833,-115706,66443,232374,39119
998358,-115356,-108144,39325,315318,165144,-115682,226187,-119847,-115734,66448,232337,39090
998359,-115388,-108152,39281,315235,165083,-115681,226219,-119867,-115736,66419,232340,39044
998360,-115380,-108169,39264,315218,164927,-115668,226247,-119865,-115723,66423,232343,39029
998361,-115354,-108199,39250,315263,164709,-115717,226227,-119880,-115770,66421,232443,39015
998362,-115351,-108159,39267,315337,164565,-115717,226242,-119882,-115770,66419,232403,39031
998363,-115364,-108144,39236,315323,164598,-115683,226268,-119881,-115736,66427,232461,39000
998364,-115353,-108137,39220,315245,164651,-115613,226306,-119839,-115665,66416,232580,38986
998365,-115295,-108096,39188,315172,164842,-115625,226315,-119828,-115678,66480,232568,38955
998366,-115306,-108082,39193,315165,165012,-115641,226309,-119828,-115695,66545,232604,38955
998367,-115353,-108103,39234,315197,165172,-115647,226301,-119832,-115703,66596,232642,38996
998368,-115368,-108110,39310,315287,165315,-115640,226287,-119819,-115694,66686,232687,39075
998369,-115368,-108123,39393,315384,165380,-115632,226271,-119795,-115686,66760,232740,39159
998370,-115314,-108093,39455,315500,165470,-115637,226258,-119793,-115689,66756,232725,39222
998371,-115270,-108080,39486,315542,165487,-115605,226256,-119781,-115660,66733,232758,39247
998372,-115261,-108065,39508,315567,165476,-115572,226240,-119768,-115625,66729,232742,39272
998373,-115234,-108072,39516,315525,165405,-115523,226235,-119770,-115575,66649,232810,39283
998374,-115242,-108076,39464,315542,165159,-115526,226278,-119786,-115577,66582,232875,39230
998375,-115251,-108076,39421,315636,164947,-115564,226293,-119785,-115618,66564,232732,39189
998376,-115240,-108091,39362,315577,164805,-115628,226275,-119794,-115680,66608,232628,39123
998377,-115229,-108089,39325,315351,164772,-115657,226271,-119797,-115709,66649,232593,39094
998378,-115249,-108088,39336,315198,164827,-115680,226262,-119794,-115732,66627,232439,39100
998379,-115331,-108109,39371,315229,164843,-115664,226172,-119791,-115718,66591,232292,39134
998380,-115363,-108107,39366,315329,164842,-115674,226081,-119823,-115727,66500,232266,39132
998381,-115363,-108131,39350,315329,164862,-115678,225989,-119877,-115734,66463,232328,39114
998382,-115390,-108150,39324,315332,164799,-115673,226054,-119879,-115726,66479,232422,39086
998383,-115394,-108144,39284,315381,164864,-115685,226120,-119894,-115740,66555,232424,39049
998384,-115380,-108144,39260,315418,164997,-115686,226153,-119888,-115740,66589,232363,39022
998385,-115362,-108111,39295,315400,165027,-115675,226259,-119836,-115727,66570,232290,39061
998386,-115320,-108081,39305,315402,165070,-115652,226312,-119830,-115705,66547,232329,39069
998387,-115315,-108093,39256,315413,165140,-115641,226308,-119861,-115692,66563,232552,39021
998388,-115290,-108090,39265,315438,165230,-115602,226350,-119879,-115656,66598,232690,39030
998389,-115264,-108064,39291,315483,165177,-115546,226411,-119857,-115596,66646,232759,39058
998390,-115227,-108067,39353,315487,165099,-115553,226467,-119860,-115607,66658,232899,39116
998391,-115191,-108054,39347,315492,165163,-115536,226472,-119850,-115587,66654,232962,39112
998392,-115162,-108023,39345,315463,165224,-115493,226399,-119830,-115545,66685,232908,39109
998393,-115148,-108017,39373,315485,165156,-115500,226295,-119808,-115554,66686,232824,39137
998394,-115171,-108044,39379,315456,165108,-115534,226247,-119788,-115587,66698,232722,39145
998395,-115231,-108076,39382,315426,165042,-115570,226293,-119777,-115619,66719,232512,39146
998396,-115256,-108087,39355,315331,164977,-115608,226311,-119775,-115660,66764,232306,39119
998397,-115277,-108087,39309,315247,164986,-115680,226282,-119774,-115733,66700,232354,39071
998398,-115317,-108125,39275,315198,165092,-115770,226232,-119844,-115824,66511,232549,39040
998399,-115324,-108155,39234,315232,165148,-115797,226179,-119904,-115851,66426,232521,38998
998400,-115346,-108186,39216,315263,165174,-115721,226096,-119908,-115775,66438,232380,38981
998401,-115367,-108191,39204,315240,165173,-115680,226024,-119934,-115730,66450,232340,38972
998402,-115387,-108188,39221,315288,165123,-115682,226040,-119963,-115734,66439,232319,38984
998403,-115356,-108164,39237,315275,165107,-115600,226045,-119902,-115654,66481,232183,38999
998404,-115307,-108127,39220,315304,165052,-115582,226101,-119853,-115634,66614,231991,38983
998405,-115273,-108097,39215,315359,165002,-115557,226264,-119804,-115610,66661,231828,38978
998406,-115263,-108072,39221,315438,164921,-115521,226373,-119768,-115575,66503,232018,38985
998407,-115237,-108065,39218,315454,164843,-115516,226389,-119769,-115569,66331,232372,38982
998408,-115264,-108068,39216,315467,164815,-115477,226381,-119786,-115531,66463,232687,38978
998409,-115284,-108100,39203,315356,164874,-115469,226449,-119754,-115523,66639,232874,38967
998410,-115263,-108084,39230,315324,164868,-115500,226508,-119745,-115553,66736,232984,38996
998411,-115214,-108066,39305,315387,164721,-115503,226498,-119754,-115556,66738,233178,39072
998412,-115196,-108077,39285,315441,164707,-115505,226448,-119761,-115557,66726,233240,39048
998413,-115211,-108092,39263,315353,164760,-115515,226411,-119750,-115565,66802,233168,39026
998414,-115277,-108128,39239,315274,164958,-115520,226327,-119770,-115573,66847,233041,39003
998415,-115304,-108129,39173,315268,164991,-115520,226272,-119779,-115574,66791,232849,38939
998416,-115343,-108155,39141,315260,164971,-115531,226218,-119804,-115583,66759,232700,38908
998417,-115361,-108188,39153,315286,165001,-115556,226050,-119812,-115608,66756,232647,38917
998418,-115367,-108199,39192,315341,164986,-115610,225925,-119845,-115665,66678,232552,38956
998419,-115404,-108224,39217,315366,164937,-115625,225947,-119868,-115680,66657,232438,38982
998420,-115478,-108256,39133,315223,165007,-115605,226138,-119860,-115659,66623,232310,38898
998421,-115507,-108259,39113,315183,165081,-115636,226165,-119903,-115689,66476,232360,38877
998422,-115507,-108259,39131,315226,165001,-115662,226168,-119897,-115714,66455,232384,38898
998423,-115489,-108236,39135,315263,164873,-115656,226218,-119891,-115711,66565,232393,38898
998424,-115422,-108214,39111,315262,164657,-115618,226278,-119858,-115671,66700,232383,38875
998425,-115377,-108177,39095,315246,164596,-115588,226313,-119830,-115641,66716,232431,38861
998426,-115337,-108153,39144,315163,164723,-115547,226374,-119791,-115601,66639,232467,38910
998427,-115318,-108113,39232,315274,164820,-115567,226404,-119788,-115616,66577,232339,38995
998428,-115281,-108106,39281,315337,164949,-115582,226432,-119794,-115636,66607,232337,39045
998429,-115221,-108064,39289,315374,165048,-115586,226459,-119779,-115639,66596,232321,39055
998430,-115190,-108052,39248,315327,165083,-115602,226511,-119751,-115653,66652,232399,39014
998431,-115162,-108039,39218,315287,165146,-115595,226497,-119754,-115648,66690,232542,38986
998432,-115169,-108049,39166,315347,165240,-115622,226498,-119760,-115675,66694,232532,38931
998433,-115197,-108069,39169,315381,165272,-115623,226465,-119767,-115677,66686,232436,38934
998434,-115261,-108101,39179,315411,165206,-115610,226402,-119785,-115666,66708,232384,38948
998435,-115275,-108144,39207,315405,165132,-115636,226317,-119856,-115687,66646,232428,38974
998436,-115338,-108194,39179,315355,165147,-115631,226233,-119913,-115687,66568,232511,38945
998437,-115377,-108220,39198,315368,165156,-115660,226184,-119896,-115713,66401,232511,38964
998438,-115388,-108221,39211,315359,165038,-115685,226094,-119928,-115737,66356,232502,38979
998439,-115387,-108226,39195,315312,164915,-115681,226061,-119915,-115734,66302,232496,38961
998440,-115392,-108225,39191,315207,164794,-115677,226023,-119929,-115731,66366,232543,38956
998441,-115406,-108224,39180,315070,164732,-115674,225996,-119895,-115728,66490,232452,38946
998442,-115450,-108232,39196,315027,164798,-115701,225978,-119873,-115752,66527,232437,38962
998443,-115475,-108212,39175,315063,164848,-115680,226015,-119884,-115734,66547,232430,38939
998444,-115416,-108196,39138,315138,164729,-115627,226150,-119828,-115682,66598,232313,38906
998445,-115383,-108170,39132,315173,164614,-115588,226280,-119770,-115642,66652,232290,38897
998446,-115379,-108172,39094,315140,164659,-115557,226326,-119764,-115609,66645,232535,38858
998447,-115387,-108187,39085,315144,164693,-115571,226337,-119777,-115627,66614,232773,38849
998448,-115348,-108152,39137,315213,164619,-115609,226408,-119753,-115661,66701,232830,38900
998449,-115261,-108127,39144,315244,164707,-115615,226469,-119738,-115666,66723,232837,38909
998450,-115214,-108132,39159,315237,164919,-115683,226480,-119730,-115733,66685,232877,38926
998451,-115215,-108147,39148,315172,165166,-115733,226514,-119698,-115785,66720,232847,38915
998452,-115190,-108106,39185,315235,165191,-115793,226577,-119658,-115847,66692,232696,38948
998453,-115166,-108089,39199,315280,165127,-115804,226600,-119657,-115857,66660,232515,38964
998454,-115173,-108080,39202,315331,165175,-115787,226511,-119705,-115840,66559,232406,38965
998455,-115196,-108120,39140,315399,165181,-115692,226388,-119766,-115743,66422,232372,38904
998456,-115242,-108144,39125,315364,165156,-115625,226310,-119838,-115674,66406,232252,38891
998457,-115268,-108158,39111,315301,165110,-115563,226266,-119851,-115616,66306,232258,38877
998458,-115327,-108180,39036,315170,165051,-115528,226215,-119823,-115582,66272,232318,38801
998459,-115361,-108210,38925,315012,165007,-115497,226183,-119850,-115547,66379,232418,38695
998460,-115382,-108222,38915,314957,164889,-115525,226106,-119856,-115578,66450,232464,38681
998461,-115374,-108236,38930,314932,164715,-115533,226095,-119833,-115588,66474,232500,38697
998462,-115359,-108245,38953,315001,164660,-115587,226094,-119819,-115639,66529,232456,38719
998463,-115371,-108237,38976,315091,164695,-115590,226046,-119793,-115643,66604,232373,38743
998464,-115329,-108226,39003,315112,164719,-115600,226122,-119769,-115655,66615,232306,38771
998465,-115307,-108225,39002,315117,164660,-115609,226252,-119742,-115662,66553,232448,38767
998466,-115270,-108222,38937,315105,164600,-115570,226305,-119737,-115621,66571,232673,38704
998467,-115249,-108203,38898,315059,164526,-115534,226422,-119698,-115587,66611,232731,38665
998468,-115241,-108178,38911,315044,164464,-115515,226561,-119671,-115566,66691,232828,38677
998469,-115209,-108173,39012,315045,164527,-115535,226644,-119663,-115588,66698,232911,38775
998470,-115178,-108176,39072,314936,164752,-115570,226675,-119662,-115624,66735,232979,38837
998471,-115197,-108183,39082,315044,164955,-115521,226624,-119681,-115578,66750,232950,38847
998472,-115213,-108172,39091,315230,165168,-115491,226568,-119686,-115544,66768,232718,38859
998473,-115209,-108175,39141,315398,165283,-115519,226561,-119709,-115572,66660,232436,38908
998474,-115231,-108175,39187,315476,165347,-115628,226466,-119770,-115681,66559,232393,38952
998475,-115257,-108205,39139,315384,165391,-115618,226405,-119781,-115672,66483,232355,38906
998476,-115298,-108228,39081,315257,165345,-115612,226380,-119757,-115664,66459,232338,38849
998477,-115309,-108237,39091,315229,165193,-115616,226359,-119788,-115667,66476,232325,38859
998478,-115340,-108241,39076,315168,165006,-115608,226314,-119811,-115659,66493,232359,38843
998479,-115375,-108252,39051,315156,164917,-115594,226300,-119855,-115649,66450,232447,38816
998480,-115386,-108258,39052,315109,164901,-115582,226283,-119887,-115637,66490,232393,38821
998481,-115408,-108236,39063,315040,164861,-115578,226254,-119873,-115631,66511,232346,38828
998482,-115382,-108209,39083,315093,164854,-115574,226255,-119878,-115626,66426,232332,38850
998483,-115342,-108177,39140,315176,164808,-115605,226276,-119863,-115657,66347,232333,38908
998484,-115345,-108175,39175,315275,164791,-115649,226244,-119861,-115701,66417,232435,38938
998485,-115354,-108172,39146,315384,164804,-115659,226213,-119860,-115714,66543,232558,38911
998486,-115311,-108149,39076,315380,164834,-115598,226237,-119807,-115650,66611,232568,38841
998487,-115337,-108146,39023,315323,164964,-115556,226328,-119754,-115606,66664,232548,38792
998488,-115307,-108103,39064,315339,165138,-115521,226418,-119733,-115574,66678,232386,38831
998489,-115249,-108066,39144,315406,165214,-115512,226435,-119708,-115562,66700,232313,38912
998490,-115209,-108035,39235,315516,165006,-115489,226437,-119685,-115543,66648,232527,39002
998491,-115177,-108020,39256,315527,164891,-115482,226421,-119678,-115535,66697,232669,39018
998492,-115164,-108026,39262,315471,164872,-115467,226424,-119660,-115523,66780,232644,39028
998493,-115170,-108045,39274,315384,164979,-115479,226417,-119671,-115534,66864,232533,39040
998494,-115217,-108087,39261,315284,165106,-115532,226349,-119730,-115588,66835,232656,39024
998495,-115268,-108134,39183,315241,165197,-115604,226293,-119755,-115656,66709,232729,38949
998496,-115307,-108152,39134,315274,165206,-115695,226281,-119787,-115749,66541,232788,38900
998497,-115323,-108158,39128,315275,165175,-115733,226280,-119832,-115787,66539,232698,38896
998498,-115374,-108178,39101,315299,165140,-115758,226193,-119872,-115814,66539,232700,38867
998499,-115382,-108169,39063,315265,165125,-115722,226073,-119876,-115772,66547,232642,38831
998500,-115372,-108156,39036,315241,165058,-115662,225956,-119853,-115715,66533,232577,38801
998501,-115383,-108155,39047,315150,165002,-115642,225937,-119861,-115697,66538,232613,38812
998502,-115372,-108138,39057,315040,164997,-115616,225979,-119863,-115669,66524,232669,38821
998503,-115352,-108139,39045,315027,165028,-115666,226019,-119819,-115721,66510,232716,38812
998504,-115368,-108147,39082,315091,165058,-115701,226085,-119835,-115749,66565,232701,38846
998505,-115392,-108164,39140,315184,165087,-115711,226148,-119792,-115764,66681,232648,38906
998506,-115370,-108146,39274,315275,165030,-115687,226148,-119779,-115743,66711,232657,39040
998507,-115339,-108124,39336,315370,164903,-115700,226171,-119754,-115754,66685,232770,39101
998508,-115285,-108090,39373,315395,164861,-115674,226233,-119736,-115726,66654,232833,39139
998509,-115236,-108060,39404,315387,164853,-115565,226325,-119726,-115619,66695,232735,39168
998510,-115209,-108027,39392,315445,164714,-115491,226454,-119689,-115546,66767,232675,39156
998511,-115219,-108030,39385,315335,164789,-115441,226525,-119669,-115494,66797,232778,39150
998512,-115230,-108044,39328,315341,164939,-115433,226581,-119685,-115487,66733,232798,39094
998513,-115250,-108050,39266,315457,165004,-115445,226615,-119712,-115501,66678,232640,39032
998514,-115214,-108048,39265,315481,165033,-115471,226624,-119751,-115525,66623,232411,39032
998515,-115213,-108050,39289,315471,165122,-115568,226575,-119776,-115622,66497,232294,39052
998516,-115254,-108070,39287,315485,165151,-115676,226510,-119783,-115727,66343,232253,39054
998517,-115258,-108072,39263,315500,165129,-115714,226468,-119761,-115767,66336,232045,39032
998518,-115298,-108098,39227,315412,165030,-115734,226431,-119786,-115788,66362,232064,38992
998519,-115336,-108149,39192,315300,164987,-115695,226368,-119835,-115749,66348,232222,38956
998520,-115368,-108177,39162,315224,164970,-115646,226303,-119873,-115697,66357,232301,38927
998521,-115425,-108211,39117,315153,165006,-115627,226249,-119895,-115681,66399,232409,38881
998522,-115421,-108198,39138,315157,164981,-115615,226203,-119886,-115669,66491,232319,38903
998523,-115407,-108196,39153,315212,165009,-115633,226156,-119864,-115691,66569,232284,38917
998524,-115420,-108184,39149,315336,164952,-115606,226157,-119813,-115661,66593,232316,38915
998525,-115423,-108184,39119,315375,164917,-115589,226216,-119794,-115647,66615,232468,38883
998526,-115395,-108193,39127,315371,164950,-115593,226225,-119817,-115645,66646,232630,38894
998527,-115330,-108152,39165,315397,164883,-115607,226238,-119866,-115660,66651,232752,38931
998528,-115270,-108115,39241,315365,164932,-115592,226305,-119844,-115649,66632,232805,39008
998529,-115197,-108078,39260,315238,164974,-115553,226366,-119830,-115605,66661,232898,39026
998530,-115169,-108060,39223,315218,165007,-115519,226387,-119780,-115572,66753,232877,38989
998531,-115188,-108080,39176,315284,165078,-115495,226426,-119720,-115550,66748,232880,38940
998532,-115230,-108086,39150,315327,165065,-115469,226491,-119674,-115518,66647,232971,38917
998533,-115216,-108091,39184,315394,164926,-115474,226549,-119653,-115525,66634,232826,38950
998534,-115222,-108108,39222,315409,165019,-115538,226491,-119681,-115595,66590,232654,38983
998535,-115292,-108134,39241,315399,165036,-115581,226423,-119698,-115634,66538,232551,39005
998536,-115320,-108137,39224,315375,165069,-115606,226454,-119726,-115663,66350,232396,38991
998537,-115348,-108143,39147,315403,165151,-115635,226367,-119745,-115689,66230,232396,38914
998538,-115389,-108143,39027,315355,165138,-115696,226277,-119789,-115753,66293,232446,38791
998539,-115413,-108155,38964,315287,164958,-115768,226236,-119837,-115821,66407,232565,38724
998540,-115406,-108163,38957,315254,164854,-115819,226246,-119858,-115874,66437,232535,38721
998541,-115421,-108196,38984,315194,164821,-115797,226231,-119893,-115851,66523,232484,38747
998542,-115398,-108195,39058,315079,164798,-115722,226295,-119925,-115775,66604,232318,38825
998543,-115356,-108181,39158,315120,164805,-115701,226320,-119904,-115755,66602,232181,38923
998544,-115348,-108194,39199,315142,164888,-115692,226191,-119897,-115745,66547,232353,38964
998545,-115348,-108178,39225,315201,164774,-115630,226131,-119839,-115683,66511,232598,38991
998546,-115361,-108182,39210,315278,164715,-115591,226149,-119795,-115646,66619,232676,38971
998547,-115343,-108165,39236,315324,164859,-115566,226233,-119791,-115621,66670,232468,39001
998548,-115311,-108131,39265,315383,165093,-115539,226310,-119761,-115593,66658,232263,39029
998549,-115312,-108119,39306,315474,165132,-115537,226380,-119738,-115588,66605,232337,39074
998550,-115289,-108089,39320,315507,165104,-115560,226466,-119726,-115615,66536,232507,39083
998551,-115288,-108076,39317,315470,165122,-115575,226513,-119690,-115629,66625,232560,39080
998552,-115311,-108100,39255,315365,165070,-115594,226516,-119713,-115649,66695,232852,39021
998553,-115315,-108117,39201,315328,165111,-115622,226479,-119748,-115674,66723,232913,38970
998554,-115343,-108119,39153,315247,165105,-115612,226447,-119760,-115665,66667,232911,38918
998555,-115367,-108148,39144,315268,165007,-115633,226422,-119795,-115686,66624,232775,38909
998556,-115378,-108155,39135,315292,164939,-115643,226380,-119832,-115696,66577,232599,38900
998557,-115382,-108169,39104,315312,164969,-115678,226330,-119867,-115733,66550,232456,38866
998558,-115391,-108175,39097,315280,164957,-115717,226262,-119889,-115772,66472,232417,38859
998559,-115398,-108168,39100,315234,164937,-115746,226187,-119882,-115798,66414,232405,38867
998560,-115430,-108179,39066,315153,164948,-115795,226125,-119910,-115852,66446,232477,38833
998561,-115444,-108174,39004,315098,164930,-115824,226103,-119913,-115875,66464,232523,38772
998562,-115407,-108156,38970,315068,164884,-115804,226150,-119923,-115857,66474,232512,38732
998563,-115395,-108138,38886,315154,164814,-115774,226187,-119904,-115826,66531,232471,38651
998564,-115388,-108146,38852,315192,164760,-115703,226223,-119895,-115753,66590,232492,38617
998565,-115382,-108149,38890,315120,164796,-115652,226285,-119886,-115705,66659,232511,38657
998566,-115364,-108143,39036,315108,164784,-115630,226328,-119899,-115681,66668,232577,38800
998567,-115327,-108140,39108,315120,164801,-115620,226365,-119900,-115672,66596,232625,38876
998568,-115271,-108106,39157,315152,164843,-115559,226428,-119858,-115613,66614,232540,38925
998569,-115235,-108062,39224,315212,164930,-115532,226474,-119806,-115584,66645,232374,38990
998570,-115227,-108070,39252,315254,164989,-115523,226378,-119782,-115577,66660,232527,39016
998571,-115219,-108078,39259,315349,165027,-115526,226267,-119760,-115580,66643,232684,39021
998572,-115218,-108090,39229,315439,165014,-115541,226240,-119747,-115595,66652,232711,38994
998573,-115243,-108102,39156,315477,165043,-115557,226237,-119751,-115612,66629,232678,38921
998574,-115289,-108128,39098,315420,165044,-115576,226271,-119780,-115630,66623,232684,38863
998575,-115327,-108156,39058,315328,165084,-115611,226200,-119847,-115663,66549,232712,38825
998576,-115332,-108171,39057,315313,165117,-115678,226113,-119881,-115728,66424,232688,38822
998577,-115332,-108186,39066,315243,165069,-115692,226062,-119892,-115746,66454,232587,38833
998578,-115363,-108180,39050,315181,164957,-115687,225993,-119891,-115740,66470,232506,38812
998579,-115388,-108202,39020,315178,164912,-115691,226006,-119901,-115745,66445,232369,38790
998580,-115410,-108211,38985,315214,164857,-115682,226032,-119898,-115733,66440,232307,38753
998581,-115432,-108211,38921,315175,164625,-115674,226119,-119885,-115727,66478,232383,38685
998582,-115444,-108214,38960,315128,164399,-115656,226191,-119875,-115712,66424,232570,38725
998583,-115426,-108188,39024,315128,164486,-115704,226266,-119895,-115757,66280,232593,38791
998584,-115445,-108203,39051,315039,164755,-115749,226328,-119946,-115804,66321,232609,38815
998585,-115429,-108211,39042,315004,164877,-115748,226360,-119981,-115799,66452,232653,38806
998586,-115419,-108174,39063,315031,164954,-115708,226378,-119967,-115759,66540,232602,38829
998587,-115371,-108143,39057,315100,165024,-115693,226382,-119923,-115744,66574,232483,38822
998588,-115336,-108109,39088,315191,165037,-115664,226424,-119874,-115714,66589,232446,38854
998589,-115292,-108092,39101,315288,165109,-115661,226457,-119863,-115714,66594,232446,38867
998590,-115279,-108096,39143,315398,165091,-115666,226445,-119842,-115723,66603,232566,38911
998591,-115276,-108074,39206,315446,165076,-115673,226380,-119855,-115724,66599,232713,38971
998592,-115258,-108048,39200,315429,164973,-115604,226392,-119838,-115655,66656,232698,38965
998593,-115284,-108037,39133,315386,164929,-115568,226442,-119851,-115621,66688,232617,38899
998594,-115317,-108058,39080,315309,165027,-115593,226466,-119878,-115646,66667,232554,38846
998595,-115349,-108063,39167,315349,165050,-115641,226388,-119907,-115697,66611,232354,38934
998596,-115386,-108054,39179,315433,164970,-115743,226204,-119900,-115797,66624,232243,38945
998597,-115386,-108041,39198,315470,164982,-115877,226032,-119885,-115929,66660,232135,38963
998598,-115377,-108047,39241,315355,164873,-115929,225956,-119873,-115982,66607,232154,39005
998599,-115377,-108078,39258,315235,164831,-115929,225939,-119907,-115982,66465,232353,39021
998600,-115425,-108128,39231,315116,164822,-115857,225983,-119911,-115911,66420,232406,38995
998601,-115439,-108172,39234,315093,164836,-115787,226020,-119944,-115838,66383,232372,39002
998602,-115461,-108190,39210,315110,164851,-115771,226070,-119991,-115824,66342,232505,38974
998603,-115476,-108198,39163,315109,164858,-115751,226182,-119951,-115807,66261,232639,38925
998604,-115435,-108210,39139,315181,164830,-115705,226214,-119941,-115758,66213,232704,38904
998605,-115413,-108184,39165,315261,164791,-115612,226227,-119903,-115664,66334,232571,38928
998606,-115400,-108172,39221,315232,164799,-115504,226266,-119879,-115555,66369,232566,38987
998607,-115389,-108154,39272,315206,164921,-115538,226293,-119950,-115594,66347,232707,39037
998608,-115348,-108131,39306,315236,164959,-115524,226370,-119959,-115579,66483,232737,39074
998609,-115306,-108107,39350,315257,164992,-115555,226416,-119966,-115607,66602,232752,39117
998610,-115296,-108084,39361,315317,165005,-115581,226420,-119966,-115633,66677,232812,39128
998611,-115286,-108033,39374,315448,165105,-115561,226437,-119944,-115611,66710,232662,39139
998612,-115281,-108028,39399,315498,165160,-115566,226418,-119936,-115616,66705,232628,39164
998613,-115253,-108022,39386,315506,165177,-115593,226414,-119966,-115645,66649,232647,39152
998614,-115247,-108028,39414,315545,165106,-115601,226381,-119942,-115653,66615,232383,39178
998615,-115275,-108044,39417,315468,165043,-115609,226323,-119981,-115664,66586,232340,39181
998616,-115319,-108067,39419,315455,164928,-115637,226275,-120010,-115692,66477,232391,39184
998617,-115319,-108075,39391,315479,164811,-115661,226208,-120001,-115711,66387,232436,39158
998618,-115347,-108092,39339,315352,164665,-115657,226153,-119973,-115710,66422,232511,39103
998619,-115370,-108114,39314,315184,164607,-115661,226132,-119931,-115715,66509,232431,39078
998620,-115355,-108119,39252,315074,164659,-115604,226169,-119876,-115656,66645,232049,39019
998621,-115358,-108112,39181,315104,164776,-115603,226091,-119897,-115654,66645,231938,38945
998622,-115352,-108100,39196,315129,164914,-115627,226023,-119923,-115678,66460,232121,38959
998623,-115379,-108110,39267,315110,164973,-115648,226092,-119953,-115702,66366,232244,39032
998624,-115430,-108127,39351,315166,164997,-115658,226086,-119950,-115709,66443,232321,39117
998625,-115471,-108153,39387,315189,165052,-115627,226107,-119945,-115682,66437,232554,39153
998626,-115453,-108140,39391,315246,165059,-115621,226203,-119908,-115672,66422,232641,39156
998627,-115410,-108148,39417,315295,165081,-115651,226232,-119912,-115704,66403,232739,39184
998628,-115332,-108110,39488,315386,165062,-115638,226290,-119885,-115692,66459,232689,39253
998629,-115271,-108058,39524,315418,165005,-115636,226359,-119847,-115688,66564,232670,39290
998630,-115235,-108029,39494,315454,165014,-115646,226393,-119830,-115698,66622,232723,39260
998631,-115200,-108026,39470,315490,165020,-115613,226359,-119808,-115668,66645,232825,39234
998632,-115172,-108037,39495,315415,164986,-115585,226350,-119763,-115639,66662,232878,39263
998633,-115168,-108020,39550,315297,164922,-115541,226341,-119754,-115597,66701,232734,39315
998634,-115179,-108011,39582,315180,164856,-115528,226368,-119754,-115581,66715,232556,39349
998635,-115192,-107995,39559,315154,164749,-115534,226370,-119774,-115590,66686,232428,39323
998636,-115263,-108016,39474,315203,164626,-115563,226345,-119830,-115616,66658,232422,39241
998637,-115327,-108053,39362,315251,164568,-115602,226420,-119850,-115655,66636,232425,39126
998638,-115359,-108115,39273,315209,164720,-115659,226419,-119901,-115708,66516,232452,39038
998639,-115417,-108133,39250,315227,164782,-115649,226323,-119929,-115702,66503,232424,39013
998640,-115470,-108178,39233,315232,164842,-115699,226270,-119978,-115753,66447,232549,39000
998641,-115465,-108177,39256,315264,164775,-115725,226224,-119976,-115775,66422,232591,39022
998642,-115456,-108183,39256,315294,164785,-115742,226229,-119969,-115793,66424,232577,39023
998643,-115418,-108183,39249,315269,164734,-115713,226267,-119937,-115767,66450,232594,39014
998644,-115422,-108156,39254,315235,164756,-115715,226310,-119909,-115765,66511,232625,39020
998645,-115394,-108140,39263,315279,164865,-115719,226292,-119887,-115773,66578,232606,39028
998646,-115368,-108119,39307,315335,165050,-115684,226279,-119833,-115742,66638,232426,39072
998647,-115356,-108105,39349,315346,165095,-115644,226336,-119780,-115699,66618,232355,39114
998648,-115356,-108073,39380,315434,165117,-115623,226393,-119762,-115678,66553,232470,39141
998649,-115334,-108025,39410,315489,165094,-115616,226457,-119740,-115669,66589,232552,39175
998650,-115318,-107993,39447,315420,165141,-115636,226479,-119712,-115689,66572,232682,39210
998651,-115206,-107962,39436,315358,165102,-115563,226470,-119687,-115616,66623,232679,39200
998652,-115148,-107963,39431,315310,165058,-115511,226455,-119667,-115565,66621,232665,39194
998653,-115169,-107966,39392,315336,165099,-115481,226427,-119711,-115534,66578,232701,39154
998654,-115232,-108003,39367,315358,165177,-115487,226411,-119765,-115541,66583,232559,39134
998655,-115273,-108040,39341,315393,165215,-115482,226364,-119836,-115537,66559,232458,39106
998656,-115316,-108090,39367,315452,165235,-115544,226277,-119920,-115597,66534,232417,39134
998657,-115323,-108119,39344,315421,165169,-115549,226249,-119920,-115600,66605,232300,39111
998658,-115345,-108140,39337,315406,165068,-115581,226230,-119999,-115634,66559,232242,39103
998659,-115350,-108157,39325,315305,164991,-115614,226244,-120012,-115667,66476,232354,39090
998660,-115391,-108189,39289,315210,164934,-115641,226265,-119999,-115695,66508,232380,39053
998661,-115420,-108188,39315,315237,164750,-115698,226243,-119980,-115750,66544,232417,39080
998662,-115432,-108174,39381,315273,164551,-115712,226281,-119949,-115766,66538,232507,39149
998663,-115397,-108159,39381,315082,164454,-115687,226285,-119922,-115740,66573,232783,39142
998664,-115380,-108160,39391,314995,164428,-115595,226256,-119868,-115650,66659,232824,39153
998665,-115355,-108191,39319,314937,164615,-115525,226278,-119788,-115578,66688,232790,39084
998666,-115333,-108193,39297,315085,164912,-115529,226241,-119749,-115583,66666,232698,39061
998667,-115333,-108163,39333,315312,165142,-115594,226209,-119785,-115646,66625,232573,39099
998668,-115309,-108123,39393,315486,165247,-115585,226271,-119773,-115638,66591,232496,39159
998669,-115271,-108083,39429,315561,165318,-115591,226375,-119782,-115644,66580,232468,39196
998670,-115225,-108077,39429,315535,165336,-115576,226440,-119791,-115628,66587,232552,39194
998671,-115168,-108053,39470,315546,165256,-115541,226483,-119788,-115591,66622,232548,39235
998672,-115171,-108052,39483,315498,165189,-115516,226500,-119782,-115571,66629,232625,39246
998673,-115187,-108056,39474,315420,165130,-115492,226448,-119819,-115546,66614,232805,39238
998674,-115215,-108101,39477,315328,165237,-115526,226309,-119848,-115578,66589,232881,39242
998675,-115254,-108120,39426,315354,165249,-115538,226214,-119863,-115591,66543,232801,39190
998676,-115337,-108154,39390,315394,165251,-115579,226122,-119867,-115633,66474,232732,39156
998677,-115370,-108134,39411,315434,165199,-115642,226075,-119884,-115695,66462,232640,39176
998678,-115340,-108118,39348,315485,165137,-115678,226090,-119867,-115730,66400,232346,39114
998679,-115336,-108103,39292,315457,165065,-115714,226091,-119882,-115765,66401,232210,39055
998680,-115345,-108110,39199,315373,164983,-115740,226057,-119904,-115790,66452,232364,38963
998681,-115355,-108137,39166,315306,164862,-115725,226019,-119913,-115777,66498,232476,38930
998682,-115361,-108140,39186,315220,164778,-115672,226041,-119916,-115723,66546,232530,38953
998683,-115333,-108140,39247,315148,164732,-115622,226140,-119895,-115674,66591,232486,39008
998684,-115299,-108143,39319,315204,164737,-115617,226191,-119885,-115669,66630,232380,39084
998685,-115295,-108116,39358,315250,164750,-115615,226285,-119865,-115667,66650,232276,39123
998686,-115252,-108103,39350,315234,164717,-115601,226390,-119820,-115656,66707,232357,39117
998687,-115252,-108100,39331,315206,164719,-115587,226463,-119811,-115639,66670,232523,39098
998688,-115215,-108081,39377,315165,164764,-115543,226572,-119796,-115595,66698,232552,39142
998689,-115154,-108059,39459,315227,164756,-115482,226631,-119797,-115536,66669,232542,39225
998690,-115144,-108048,39491,315291,164722,-115461,226658,-119788,-115512,66640,232680,39256
998691,-115128,-108047,39483,315336,164779,-115473,226668,-119803,-115526,66685,232773,39252
998692,-115132,-108042,39447,315403,164802,-115490,226672,-119805,-115540,66742,232764,39213
998693,-115184,-108060,39367,315399,164930,-115516,226606,-119807,-115571,66730,232796,39131
998694,-115241,-108106,39220,315361,165173,-115539,226539,-119830,-115594,66636,232792,38984
998695,-115301,-108140,39188,315366,165205,-115571,226416,-119898,-115625,66576,232870,38954
998696,-115348,-108174,39179,315367,165270,-115631,226328,-119959,-115684,66567,232784,38945
998697,-115344,-108184,39216,315411,165356,-115692,226281,-119991,-115744,66509,232599,38979
998698,-115354,-108180,39226,315418,165324,-115709,226228,-120044,-115762,66424,232468,38991
998699,-115364,-108183,39224,315327,165273,-115735,226187,-120056,-115790,66429,232483,38987
998700,-115378,-108181,39240,315250,165137,-115754,226214,-120019,-115805,66469,232417,39007
998701,-115352,-108181,39215,315209,164977,-115747,226205,-119951,-115801,66525,232334,38982
998702,-115353,-108175,39240,315223,164786,-115719,226215,-119892,-115774,66530,232345,39005
998703,-115404,-108175,39249,315281,164673,-115683,226249,-119824,-115735,66548,232382,39015
998704,-115432,-108187,39219,315302,164736,-115656,226334,-119818,-115706,66574,232416,38985
998705,-115377,-108189,39186,315292,164838,-115652,226386,-119778,-115706,66615,232424,38952
998706,-115306,-108156,39185,315396,164906,-115721,226442,-119743,-115776,66550,232415,38948
998707,-115298,-108153,39193,315323,165044,-115703,226474,-119735,-115759,66457,232569,38958
998708,-115260,-108139,39220,315323,165141,-115727,226451,-119708,-115779,66410,232805,38987
998709,-115251,-108112,39258,315375,165193,-115732,226457,-119702,-115784,66445,232955,39025
998710,-115206,-108096,39276,315448,165263,-115752,226469,-119695,-115804,66545,232880,39044
998711,-115221,-108115,39276,315458,165249,-115682,226480,-119699,-115736,66736,232856,39040
998712,-115217,-108103,39267,315484,165212,-115622,226522,-119734,-115674,66800,232784,39033
998713,-115236,-108127,39259,315483,165181,-115541,226501,-119768,-115597,66811,232719,39023
998714,-115246,-108122,39280,315432,165128,-115550,226455,-119789,-115605,66813,232664,39045
998715,-115286,-108146,39291,315316,165064,-115537,226433,-119787,-115592,66754,232607,39058
998716,-115295,-108155,39287,315266,165100,-115556,226348,-119801,-115607,66680,232446,39051
998717,-115304,-108169,39272,315240,165043,-115563,226347,-119771,-115616,66726,232248,39039
998718,-115301,-108189,39237,315213,164891,-115599,226330,-119791,-115655,66660,232319,39001
998719,-115320,-108212,39194,315212,164853,-115653,226329,-119813,-115709,66517,232393,38960
998720,-115320,-108236,39142,315105,164874,-115653,226381,-119824,-115708,66443,232353,38908
998721,-115332,-108233,39132,315013,164804,-115584,226376,-119824,-115638,66491,232305,38896
998722,-115314,-108217,39150,315008,164806,-115568,226321,-119843,-115622,66478,232327,38916
998723,-115315,-108213,39141,315021,164816,-115556,226288,-119850,-115610,66531,232434,38904
998724,-115299,-108203,39153,314978,164776,-115565,226320,-119827,-115616,66618,232554,38920
998725,-115304,-108189,39171,314914,164752,-115556,226404,-119817,-115611,66694,232659,38936
998726,-115280,-108168,39155,315012,164703,-115481,226522,-119755,-115532,66688,232609,38919
998727,-115247,-108157,39175,315154,164682,-115432,226578,-119735,-115483,66648,232555,38943
998728,-115217,-108134,39151,315322,164690,-115411,226585,-119740,-115464,66647,232684,38915
998729,-115174,-108096,39167,315360,164785,-115405,226570,-119758,-115458,66633,232800,38932
998730,-115160,-108080,39178,315398,165011,-115413,226545,-119744,-115465,66665,232749,38943
998731,-115196,-108092,39181,315367,165235,-115432,226520,-119754,-115485,66729,232843,38946
998732,-115194,-108104,39218,315427,165323,-115460,226517,-119758,-115513,66722,232870,38982
998733,-115227,-108110,39294,315476,165316,-115502,226492,-119773,-115555,66697,232797,39058
998734,-115233,-108118,39331,315461,165230,-115509,226475,-119783,-115562,66701,232686,39098
998735,-115254,-108122,39281,315350,165110,-115502,226432,-119794,-115557,66699,232702,39047
998736,-115293,-108139,39206,315262,165032,-115556,226383,-119829,-115607,66694,232770,38970
998737,-115295,-108100,39154,315296,164939,-115542,226354,-119807,-115597,66677,232595,38917
998738,-115312,-108120,39116,315277,164920,-115544,226295,-119830,-115597,66637,232490,38878
998739,-115285,-108104,39149,315274,164834,-115533,226160,-119820,-115587,66577,232487,38912
998740,-115275,-108098,39200,315340,164645,-115537,226076,-119848,-115590,66515,232539,38968
998741,-115320,-108121,39236,315330,164569,-115550,226047,-119890,-115603,66533,232576,39002
998742,-115371,-108146,39260,315262,164764,-115546,226025,-119895,-115598,66564,232569,39024
998743,-115368,-108145,39305,315303,164947,-115538,225984,-119894,-115589,66561,232474,39071
998744,-115361,-108118,39381,315366,165055,-115531,225985,-119884,-115584,66528,232450,39146
998745,-115374,-108117,39415,315427,165077,-115540,226084,-119869,-115591,66501,232508,39178
998746,-115360,-108098,39441,315513,165048,-115548,226194,-119837,-115603,66530,232529,39206
998747,-115364,-108087,39456,315539,165071,-115546,226226,-119832,-115597,66622,232514,39222
998748,-115337,-108057,39492,315574,165036,-115520,226278,-119776,-115572,66695,232603,39258
998749,-115273,-108032,39507,315624,164980,-115497,226380,-119746,-115550,66761,232589,39275
998750,-115222,-107999,39469,315658,164961,-115464,226505,-119729,-115516,66808,232455,39235
998751,-115175,-107962,39483,315705,164900,-115430,226532,-119707,-115484,66808,232499,39247
998752,-115145,-107964,39497,315619,164980,-115457,226451,-119720,-115511,66735,232701,39260
998753,-115155,-107964,39522,315491,165264,-115495,226365,-119759,-115547,66658,232756,39289
998754,-115147,-107966,39580,315424,165369,-115520,226380,-119760,-115573,66544,232499,39342
998755,-115194,-107986,39612,315303,165288,-115546,226380,-119767,-115601,66590,232384,39376
998756,-115224,-107995,39589,315212,165278,-115628,226346,-119802,-115682,66573,232315,39355
998757,-115215,-107992,39534,315144,165234,-115695,226333,-119799,-115751,66552,232286,39297
998758,-115264,-108027,39472,315140,164997,-115750,226312,-119795,-115804,66525,232469,39234
998759,-115300,-108037,39462,315200,164873,-115751,226343,-119811,-115806,66453,232446,39229
998760,-115335,-108051,39405,315263,164955,-115771,226343,-119805,-115827,66393,232267,39168
998761,-115354,-108056,39351,315429,164914,-115793,226293,-119810,-115848,66366,232219,39116
998762,-115356,-108078,39277,315457,165008,-115787,226304,-119798,-115842,66274,232337,39043
998763,-115326,-108059,39238,315495,164986,-115759,226331,-119768,-115813,66311,232278,39002
998764,-115293,-108042,39215,315527,164940,-115710,226398,-119746,-115762,66433,232154,38985
998765,-115310,-108052,39258,315523,164912,-115692,226376,-119768,-115745,66522,232412,39025
998766,-115321,-108050,39348,315457,164852,-115594,226373,-119777,-115649,66552,232610,39111
998767,-115310,-108056,39429,315346,164915,-115505,226386,-119775,-115560,66614,232672,39190
998768,-115288,-108041,39438,315294,165027,-115469,226390,-119777,-115522,66689,232819,39203
998769,-115228,-108011,39455,315448,165066,-115492,226348,-119745,-115546,66718,232849,39221
998770,-115183,-107986,39516,315575,165093,-115490,226340,-119694,-115546,66769,232678,39279
998771,-115157,-107963,39549,315699,165074,-115461,226379,-119707,-115516,66796,232612,39315
998772,-115191,-107980,39568,315746,165060,-115504,226401,-119743,-115557,66795,232771,39333
998773,-115213,-108026,39562,315658,165157,-115486,226349,-119805,-115541,66691,232939,39327
998774,-115213,-108035,39539,315521,165185,-115476,226290,-119801,-115527,66490,233055,39305
998775,-115206,-108051,39480,315467,165107,-115447,226205,-119813,-115500,66400,233072,39243
998776,-115230,-108055,39422,315515,165011,-115479,226053,-119833,-115531,66471,232955,39188
998777,-115312,-108065,39373,315498,164907,-115464,226013,-119811,-115518,66539,232871,39138
998778,-115426,-108081,39306,315446,164886,-115494,226013,-119829,-115545,66662,232743,39070
998779,-115464,-108097,39315,315342,164975,-115543,226112,-119888,-115594,66679,232621,39077
998780,-115453,-108119,39327,315271,165054,-115616,226170,-119915,-115669,66677,232506,39092
998781,-115457,-108144,39367,315268,165117,-115676,226184,-119963,-115734,66651,232437,39128
998782,-115420,-108117,39375,315349,165069,-115717,226261,-119960,-115769,66593,232338,39141
998783,-115338,-108085,39432,315459,164972,-115714,226267,-119911,-115764,66462,232321,39194
998784,-115281,-108047,39507,315477,164945,-115679,226286,-119823,-115731,66393,232232,39269
998785,-115281,-108022,39516,315433,164915,-115564,226355,-119754,-115616,66519,232127,39278
998786,-115295,-108015,39469,315424,165016,-115575,226405,-119710,-115630,66518,232303,39234
998787,-115278,-108027,39420,315489,165112,-115641,226417,-119732,-115695,66523,232467,39185
998788,-115215,-107998,39387,315558,165196,-115660,226458,-119705,-115712,66604,232514,39150
998789,-115175,-107989,39399,315543,165278,-115662,226490,-119708,-115715,66671,232607,39166
998790,-115156,-107976,39468,315499,165251,-115603,226513,-119702,-115656,66713,232723,39232
998791,-115166,-107987,39526,315504,165167,-115513,226517,-119689,-115566,66761,232797,39291
998792,-115166,-107998,39530,315474,165175,-115443,226548,-119693,-115499,66744,232799,39294
998793,-115177,-108017,39494,315500,165155,-115396,226535,-119724,-115450,66791,232718,39258
998794,-115192,-108029,39474,315555,165140,-115385,226430,-119750,-115436,66778,232599,39237
998795,-115184,-108019,39479,315575,165013,-115401,226321,-119771,-115454,66629,232582,39244
998796,-115165,-108028,39436,315580,164779,-115447,226265,-119775,-115500,66588,232616,39200
998797,-115216,-108068,39429,315567,164809,-115490,226270,-119751,-115543,66584,232521,39194
998798,-115273,-108094,39430,315580,164952,-115623,226270,-119753,-115678,66549,232221,39196
998799,-115334,-108118,39442,315513,165066,-115764,226227,-119791,-115815,66539,232272,39206
998800,-115399,-108141,39430,315421,165042,-115808,226190,-119824,-115863,66561,232414,39193
998801,-115398,-108172,39391,315284,164949,-115761,226204,-119836,-115813,66620,232497,39153
998802,-115392,-108178,39344,315219,164933,-115660,226168,-119830,-115716,66652,232528,39107
998803,-115379,-108183,39349,315207,165030,-115610,226181,-119844,-115664,66626,232574,39113
998804,-115389,-108182,39373,315310,165045,-115593,226188,-119854,-115646,66627,232642,39137
998805,-115389,-108169,39454,315468,164955,-115543,226209,-119827,-115594,66597,232723,39217
998806,-115376,-108146,39506,315439,164932,-115499,226296,-119788,-115550,66648,232746,39273
998807,-115332,-108134,39495,315283,164964,-115411,226433,-119743,-115464,66743,232605,39259
998808,-115284,-108099,39530,315270,165054,-115391,226514,-119714,-115445,66812,232556,39293
998809,-115281,-108092,39455,315254,165165,-115403,226495,-119701,-115456,66804,232831,39219
998810,-115228,-108069,39439,315391,165092,-115379,226469,-119677,-115430,66821,232939,39207
998811,-115180,-108043,39479,315547,165120,-115397,226441,-119663,-115450,66821,232837,39246
998812,-115143,-108017,39490,315560,165240,-115425,226420,-119681,-115476,66787,232735,39256
998813,-115139,-108029,39486,315582,165272,-115450,226404,-119678,-115504,66787,232663,39250
998814,-115194,-108050,39426,315548,165236,-115467,226408,-119682,-115521,66766,232720,39193
998815,-115242,-108094,39355,315433,165316,-115474,226389,-119724,-115526,66711,232665,39123
998816,-115288,-108132,39365,315452,165298,-115507,226346,-119783,-115560,66582,232675,39131
998817,-115347,-108171,39399,315439,165272,-115576,226395,-119820,-115631,66460,232747,39166
998818,-115373,-108173,39347,315431,165135,-115587,226407,-119830,-115643,66390,232670,39111
998819,-115383,-108165,39280,315438,165066,-115592,226385,-119835,-115646,66398,232586,39045
998820,-115389,-108161,39215,315408,164999,-115631,226370,-119808,-115683,66425,232551,38977
998821,-115371,-108171,39175,315304,164943,-115640,226374,-119801,-115694,66474,232508,38943
998822,-115337,-108150,39216,315200,164982,-115621,226386,-119811,-115676,66478,232431,38982
998823,-115309,-108133,39244,315195,165056,-115605,226383,-119785,-115659,66490,232386,39010
998824,-115304,-108144,39213,315275,165110,-115554,226397,-119779,-115608,66545,232367,38976
998825,-115286,-108155,39229,315370,165159,-115524,226411,-119780,-115580,66564,232341,38992
998826,-115249,-108131,39297,315470,165059,-115511,226366,-119770,-115566,66608,232457,39061
998827,-115182,-108070,39392,315558,164868,-115528,226278,-119733,-115582,66571,232589,39154
998828,-115138,-108043,39422,315519,164886,-115522,226280,-119689,-115576,66532,232798,39183
998829,-115151,-108075,39393,315378,165041,-115478,226395,-119658,-115532,66649,232864,39159
998830,-115172,-108100,39366,315318,165177,-115490,226488,-119617,-115542,66733,232981,39132
998831,-115164,-108085,39342,315382,165193,-115457,226502,-119608,-115511,66735,233069,39107
998832,-115183,-108079,39312,315465,165224,-115398,226473,-119614,-115450,66758,233008,39076
998833,-115170,-108091,39315,315395,165199,-115398,226571,-119658,-115453,66785,232964,39082
998834,-115194,-108118,39311,315282,165131,-115384,226593,-119672,-115436,66765,232902,39077
998835,-115242,-108153,39317,315256,165073,-115373,226510,-119660,-115425,66689,232827,39080
998836,-115283,-108169,39306,315281,165026,-115408,226450,-119672,-115462,66608,232740,39073
998837,-115279,-108162,39328,315358,165082,-115447,226399,-119673,-115498,66569,232440,39094
998838,-115286,-108157,39334,315437,165160,-115552,226390,-119680,-115605,66548,232079,39101
998839,-115314,-108152,39299,315493,165142,-115653,226334,-119708,-115705,66513,232048,39064
998840,-115339,-108163,39281,315526,165050,-115667,226273,-119738,-115718,66500,232187,39047
998841,-115364,-108194,39237,315424,164917,-115618,226234,-119761,-115667,66544,232328,39000
998842,-115336,-108163,39227,315349,164841,-115528,226230,-119739,-115582,66528,232316,38989
998843,-115346,-108147,39199,315309,164763,-115513,226246,-119726,-115562,66583,232435,38967
998844,-115402,-108147,39244,315334,164773,-115493,226284,-119718,-115546,66631,232509,39011
998845,-115416,-108135,39306,315384,164802,-115501,226331,-119740,-115553,66668,232588,39069
998846,-115379,-108127,39321,315339,164762,-115463,226361,-119742,-115517,66758,232740,39083
998847,-115317,-108122,39268,315288,164730,-115442,226374,-119740,-115495,66810,232875,39032
998848,-115258,-108076,39237,315316,164830,-115439,226403,-119730,-115492,66815,232961,39001
998849,-115230,-108056,39292,315407,164896,-115423,226453,-119691,-115477,66807,232957,39059
998850,-115225,-108028,39359,315469,165099,-115441,226498,-119669,-115494,66787,232813,39125
998851,-115215,-108012,39424,315491,165212,-115429,226503,-119667,-115483,66760,232788,39190
998852,-115202,-108009,39478,315438,165195,-115383,226473,-119649,-115438,66741,232755,39242
998853,-115194,-108011,39496,315458,165106,-115360,226436,-119653,-115411,66741,232685,39262
998854,-115230,-108047,39478,315406,165196,-115394,226379,-119700,-115448,66683,232729,39245
998855,-115270,-108076,39404,315294,165324,-115427,226334,-119714,-115482,66591,232689,39168
998856,-115327,-108097,39354,315350,165276,-115500,226333,-119750,-115553,66517,232613,39119
998857,-115368,-108105,39373,315393,165227,-115531,226330,-119802,-115585,66453,232575,39137
998858,-115411,-108104,39374,315396,165140,-115581,226333,-119822,-115631,66422,232466,39139
998859,-115427,-108096,39382,315388,165080,-115604,226348,-119840,-115657,66396,232361,39148
998860,-115430,-108112,39363,315380,165051,-115643,226318,-119870,-115698,66300,232440,39126
998861,-115404,-108115,39302,315387,165003,-115640,226243,-119904,-115696,66335,232476,39064
998862,-115364,-108106,39173,315315,164946,-115637,226187,-119847,-115690,66494,232483,38939
998863,-115322,-108087,39160,315279,164981,-115630,226043,-119791,-115682,66590,232515,38926
998864,-115275,-108082,39260,315374,165020,-115612,225902,-119762,-115665,66631,232481,39022
998865,-115247,-108051,39395,315499,165065,-115561,225830,-119750,-115614,66598,232327,39161
998866,-115237,-108020,39481,315552,165192,-115512,225933,-119729,-115564,66527,232194,39246
998867,-115260,-108027,39563,315549,165222,-115486,226029,-119774,-115543,66468,232377,39328
998868,-115289,-108031,39619,315563,165178,-115484,226207,-119845,-115534,66481,232659,39388
998869,-115278,-108017,39663,315616,165106,-115443,226362,-119810,-115497,66515,232654,39428
998870,-115225,-107981,39671,315715,165041,-115429,226499,-119754,-115484,66589,232437,39437
998871,-115193,-107967,39604,315789,165054,-115442,226515,-119717,-115491,66695,232406,39369
998872,-115220,-107978,39506,315713,165084,-115454,226504,-119715,-115507,66760,232639,39272
998873,-115241,-107980,39472,315586,165036,-115504,226544,-119715,-115554,66787,232718,39241
998874,-115222,-107985,39470,315494,164871,-115547,226595,-119713,-115600,66788,232657,39237
998875,-115243,-108017,39504,315480,164871,-115612,226590,-119733,-115668,66688,232591,39272
998876,-115304,-108056,39524,315465,164876,-115636,226515,-119763,-115686,66618,232517,39289
998877,-115330,-108100,39517,315334,164927,-115659,226467,-119748,-115712,66677,232455,39282
998878,-115384,-108125,39445,315220,165119,-115681,226377,-119796,-115733,66643,232377,39212
998879,-115399,-108125,39406,315214,165165,-115666,226330,-119825,-115718,66508,232381,39171
998880,-115393,-108153,39349,315225,165189,-115593,226278,-119840,-115646,66330,232403,39113
998881,-115380,-108166,39284,315308,165169,-115568,226231,-119853,-115620,66205,232447,39053
998882,-115375,-108155,39283,315373,165109,-115543,226238,-119851,-115597,66182,232480,39049
998883,-115388,-108142,39319,315404,165100,-115624,226253,-119841,-115675,66179,232598,39086
998884,-115367,-108135,39347,315444,165119,-115680,226272,-119807,-115733,66352,232522,39111
998885,-115328,-108107,39358,315516,165151,-115664,226236,-119814,-115721,66529,232418,39124
998886,-115309,-108097,39367,315533,165109,-115618,226233,-119801,-115672,66638,232476,39128
998887,-115313,-108092,39396,315575,165013,-115577,226264,-119792,-115631,66642,232590,39161
998888,-115325,-108066,39426,315569,164945,-115515,226297,-119760,-115566,66716,232788,39190
998889,-115322,-108057,39434,315564,164949,-115447,226331,-119724,-115500,66751,232938,39199
998890,-115295,-108044,39439,315617,164961,-115393,226310,-119712,-115446,66688,233059,39201
998891,-115222,-108030,39464,315495,165004,-115414,226393,-119714,-115467,66691,233103,39229
998892,-115222,-108028,39502,315440,165075,-115445,226514,-119688,-115498,66802,232915,39263
998893,-115228,-108025,39557,315420,165077,-115457,226523,-119668,-115513,66800,232751,39321
998894,-115259,-108018,39567,315367,165070,-115487,226476,-119690,-115538,66737,232735,39334
998895,-115280,-108012,39577,315322,165103,-115513,226362,-119719,-115567,66692,232606,39340
998896,-115262,-108041,39515,315312,165054,-115531,226329,-119724,-115582,66691,232367,39284
998897,-115275,-108048,39404,315423,164986,-115575,226290,-119759,-115630,66605,232466,39172
998898,-115312,-108084,39289,315381,164924,-115642,226289,-119798,-115694,66535,232630,39057
998899,-115333,-108107,39197,315306,164945,-115652,226304,-119789,-115702,66504,232582,38965
998900,-115335,-108128,39188,315288,165128,-115672,226298,-119816,-115724,66446,232402,38954
998901,-115301,-108113,39269,315357,165173,-115672,226273,-119813,-115723,66393,232092,39034
998902,-115306,-108112,39311,315453,165092,-115635,226247,-119806,-115686,66477,231997,39076
998903,-115309,-108128,39307,315464,165006,-115587,226267,-119807,-115640,66502,232206,39072
998904,-115305,-108140,39302,315398,165048,-115600,226299,-119802,-115652,66437,232412,39070
998905,-115319,-108141,39339,315488,165181,-115619,226326,-119815,-115674,66425,232484,39107
998906,-115306,-108123,39377,315564,165273,-115709,226371,-119864,-115765,66463,232622,39142
998907,-115290,-108128,39361,315573,165305,-115757,226418,-119848,-115807,66524,232660,39129
998908,-115250,-108109,39373,315611,165396,-115711,226482,-119838,-115763,66560,232669,39140
998909,-115227,-108089,39404,315600,165467,-115630,226502,-119801,-115686,66630,232676,39170
998910,-115219,-108065,39440,315622,165416,-115557,226518,-119786,-115609,66686,232716,39206
998911,-115214,-108053,39489,315641,165399,-115498,226540,-119781,-115551,66698,232804,39256
998912,-115210,-108032,39484,315635,165336,-115467,226544,-119762,-115523,66708,232828,39250
998913,-115212,-108027,39493,315650,165224,-115506,226533,-119724,-115557,66726,232776,39256
998914,-115213,-108037,39449,315601,165066,-115554,226501,-119732,-115607,66756,232825,39218
998915,-115216,-108060,39417,315590,164990,-115566,226473,-119746,-115619,66699,232756,39181
998916,-115249,-108076,39377,315557,164920,-115575,226438,-119776,-115628,66630,232670,39143
998917,-115243,-108053,39358,315552,164841,-115549,226377,-119784,-115604,66597,232555,39125
998918,-115255,-108075,39294,315509,164799,-115529,226254,-119792,-115581,66630,232481,39060
998919,-115286,-108096,39263,315456,164784,-115529,226192,-119791,-115582,66647,232507,39029
998920,-115303,-108125,39231,315195,164947,-115522,226178,-119761,-115575,66660,232542,38996
998921,-115262,-108126,39267,315002,164776,-115543,226243,-119732,-115593,66564,232660,39032
998922,-115233,-108115,39312,315080,164681,-115584,226299,-119732,-115637,66423,232682,39077
998923,-115221,-108119,39339,315220,164830,-115634,226338,-119732,-115687,66348,232577,39104
998924,-115256,-108140,39309,315277,165054,-115671,226379,-119746,-115724,66399,232533,39074
998925,-115246,-108110,39331,315374,165305,-115610,226345,-119755,-115664,66413,232378,39100
998926,-115230,-108077,39383,315461,165375,-115574,226368,-119687,-115625,66492,232179,39149
998927,-115233,-108062,39401,315501,165355,-115607,226417,-119650,-115662,66488,232206,39165
998928,-115193,-108041,39435,315507,165482,-115576,226444,-119633,-115628,66518,232305,39196
998929,-115187,-108040,39435,315478,165572,-115560,226429,-119661,-115613,66610,232529,39197
998930,-115174,-108032,39451,315497,165592,-115502,226399,-119682,-115553,66654,232728,39219
998931,-115189,-108038,39402,315514,165507,-115426,226498,-119690,-115482,66774,232827,39170
998932,-115196,-108062,39315,315471,165408,-115389,226547,-119702,-115445,66820,232998,39079
998933,-115175,-108065,39316,315471,165257,-115411,226593,-119702,-115466,66810,233003,39082
998934,-115147,-108072,39303,315474,165208,-115438,226553,-119709,-115491,66766,232911,39069
998935,-115160,-108096,39278,315477,165193,-115451,226481,-119741,-115504,66702,232814,39045
998936,-115194,-108134,39275,315471,165209,-115467,226381,-119749,-115521,66652,232686,39039
998937,-115209,-108108,39260,315488,165255,-115488,226247,-119767,-115540,66606,232622,39023
998938,-115242,-108109,39221,315530,165189,-115491,226205,-119785,-115545,66623,232459,38985
998939,-115293,-108103,39193,315552,165022,-115485,226262,-119785,-115537,66540,232427,38959
998940,-115347,-108111,39227,315625,164835,-115522,226357,-119818,-115575,66399,232506,38990
998941,-115349,-108115,39302,315632,164610,-115572,226388,-119850,-115623,66380,232576,39066
998942,-115315,-108119,39294,315526,164651,-115565,226402,-119841,-115619,66503,232551,39057
998943,-115308,-108156,39216,315346,164836,-115529,226441,-119840,-115582,66615,232569,38979
998944,-115279,-108147,39196,315340,164916,-115531,226453,-119808,-115584,66627,232587,38959
998945,-115233,-108115,39227,315390,164892,-115489,226509,-119782,-115541,66586,232517,38992
998946,-115193,-108085,39263,315445,164811,-115444,226520,-119754,-115500,66619,232549,39031
998947,-115138,-108074,39229,315406,164835,-115482,226484,-119711,-115538,66691,232672,38995
998948,-115107,-108078,39252,315411,164899,-115440,226526,-119680,-115492,66795,232688,39017
998949,-115100,-108066,39295,315451,164882,-115395,226554,-119647,-115446,66895,232678,39062
998950,-115104,-108058,39362,315473,164914,-115383,226467,-119630,-115435,66947,232826,39129
998951,-115096,-108058,39386,315383,165001,-115365,226426,-119581,-115420,66986,232937,39152
998952,-115090,-108052,39363,315297,165053,-115377,226498,-119569,-115430,66950,232908,39129
998953,-115112,-108054,39310,315345,165165,-115419,226595,-119599,-115473,66837,232828,39077
998954,-115152,-108083,39243,315421,165323,-115456,226589,-119649,-115507,66766,232667,39010
998955,-115193,-108102,39233,315499,165471,-115493,226527,-119714,-115545,66657,232480,38999
998956,-115217,-108113,39222,315503,165507,-115504,226486,-119727,-115560,66581,232256,38985
998957,-115246,-108122,39222,315489,165440,-115516,226461,-119757,-115571,66587,232188,38987
998958,-115293,-108158,39206,315458,165429,-115559,226370,-119770,-115610,66531,232203,38973
998959,-115314,-108181,39180,315344,165345,-115582,226321,-119759,-115634,66485,232340,38945
998960,-115336,-108199,39179,315371,165213,-115594,226306,-119770,-115644,66406,232430,38943
998961,-115333,-108209,39163,315355,165085,-115575,226293,-119810,-115630,66376,232533,38926
998962,-115367,-108225,39116,315296,165033,-115582,226278,-119830,-115638,66475,232695,38880
998963,-115364,-108216,39041,315310,165004,-115561,226288,-119813,-115614,66553,232786,38804
998964,-115326,-108203,38995,315277,164993,-115525,226336,-119793,-115574,66592,232874,38761
998965,-115263,-108155,39034,315235,164934,-115461,226372,-119730,-115514,66629,232768,38799
998966,-115203,-108100,39055,315195,164870,-115375,226513,-119629,-115425,66721,232471,38821
998967,-115159,-108073,39089,315275,164823,-115336,226514,-119576,-115388,66798,232258,38856
998968,-115160,-108064,39130,315344,164914,-115335,226464,-119596,-115385,66753,232527,38895
998969,-115135,-108070,39210,315414,164996,-115346,226476,-119615,-115401,66695,232732,38971
998970,-115128,-108076,39274,315405,165045,-115350,226540,-119596,-115401,66771,232731,39039
998971,-115122,-108064,39330,315488,165082,-115334,226557,-119590,-115388,66812,232638,39095
998972,-115131,-108047,39287,315449,165122,-115374,226554,-119605,-115428,66841,232746,39054
998973,-115126,-108053,39275,315352,165228,-115445,226551,-119630,-115500,66758,232863,39039
998974,-115120,-108052,39312,315304,165142,-115546,226537,-119630,-115597,66724,232807,39079
998975,-115136,-108071,39314,315310,165035,-115652,226511,-119619,-115703,66691,232692,39080
998976,-115173,-108085,39305,315359,164902,-115706,226461,-119624,-115759,66711,232548,39070
998977,-115212,-108121,39199,315355,164948,-115693,226375,-119658,-115746,66639,232598,38968
998978,-115243,-108152,39122,315309,165075,-115676,226254,-119701,-115731,66474,232686,38891
998979,-115268,-108172,39090,315281,165094,-115599,226196,-119755,-115649,66416,232673,38856
998980,-115321,-108208,39051,315277,165131,-115585,226146,-119811,-115640,66390,232676,38813
998981,-115326,-108200,39047,315358,165132,-115609,226068,-119804,-115664,66364,232566,38812
998982,-115338,-108186,39068,315375,165169,-115637,226056,-119805,-115692,66390,232526,38834
998983,-115353,-108191,39052,315337,165197,-115626,226076,-119806,-115677,66493,232616,38818
998984,-115360,-108203,39079,315339,165154,-115605,226147,-119804,-115659,66615,232646,38847
998985,-115326,-108181,39112,315394,165031,-115551,226171,-119784,-115606,66698,232688,38879
998986,-115305,-108169,39137,315430,164987,-115503,226254,-119737,-115556,66704,232712,38902
998987,-115316,-108162,39166,315429,165048,-115473,226350,-119733,-115524,66614,232769,38934
998988,-115267,-108111,39234,315481,165056,-115462,226441,-119718,-115517,66604,232729,39002
