timestamp,LAz_angle,LEl_angle,RAz_angle,REl_angle
1032673,0.21218577386796722,-0.277224752195172,-34.526048748675535,0.6467153768912127
1032674,0.20239139760061453,-0.2466312790751149,-34.498367826650934,0.8511841888146797
1032675,0.19338891133916286,-0.2172529178136012,-34.47293655685028,1.0512972858519212
1032676,0.18595697195671038,-0.19026218137362483,-34.45194228207099,1.2428701201868477
1032677,0.1808474772007405,-0.16674733144853174,-34.43744960808243,1.4220536367137198
1032678,0.1787707953015879,-0.147672511736665,-34.43134444690228,1.5854850073174853
1032679,0.18038015584164172,-0.1338407213855396,-34.43528259722015,1.7304178227160305
1032680,0.18625477315397207,-0.1258609592662172,-34.45064578127404,1.8548270164949932
1032688,0.19688185678284054,-0.12411983728562562,-34.47850482343605,1.9574834260340677
1032689,0.21263843823366085,-0.12875978512471353,-34.519593345425655,2.0379970870486934
1032690,0.233772250198416,-0.13966325641397284,-34.574288726241114,2.0968229226165334
1032691,0.2603845269600764,-0.156445885188829,-34.642604530469235,2.135233780448276
1032692,0.2924143826526482,-0.17845799169018497,-34.72419088398533,2.1552580930557506
1032693,0.32962667434665416,-0.20479567795617235,-34.81834367849047,2.159585957460336
1032694,0.37160421574636326,-0.23432186744576872,-34.92402287567291,2.1514480628936155
1032695,0.4177458371891193,-0.265697392729361,-35.039878017693574,2.13447201724147
1032696,0.46727115471758174,-0.2974218202385038,-35.164280747973514,2.112522645950421
1032697,0.5192332877300266,-0.3278836286566667,-35.295362377152806,2.0895323566731943
1032698,0.5725396271230916,-0.35541811719097727,-35.43105670427526,2.0693298495579193
1032699,0.6259810837204312,-0.37837217470401313,-35.569148329471126,2.0554749665278105
1032700,0.678269265860179,-0.3951730837698268,-35.707322156276895,2.0511056049281255
1032701,0.7280808139761173,-0.4043991463299545,-35.84321719829504,2.058805278624097
1032702,0.7741079512629199,-0.40484989680540767,-35.974479818378654,2.080495049355145
1032703,0.8151128143280137,-0.39561202428681874,-36.09881885532885,2.117356951119166
1032704,0.8499839290133179,-0.37611820900142995,-36.21406071580205,2.1697914694577323
1032705,0.8777920786977493,-0.34619564054801877,-36.31820096069928,2.2374096065869384
1032706,0.8978430041536496,-0.306101483412302,-36.40945331113627,2.3190611189317965
1032707,0.9097236171361999,-0.2565421128877464,-36.48629450688269,2.4128968733671226
1032708,0.9133397927777337,-0.19867461354037458,-36.54750243737285,2.5164622372254564
1032709,0.9089422279521616,-0.13408828385061286,-36.59218619968819,2.6268161972356365
1032710,0.8971392741472458,-0.06476618977635165,-36.6198053658219,2.740670143665416
1032711,0.8788942322762644,0.006973120683243087,-36.630179632698926,2.8545404213906864
1032712,0.8555067773211921,0.07855287221599533,-36.623484734238,2.964905692123711
1032713,0.8285774286037819,0.14723230602305878,-36.600235743953284,3.0683622595970634
1032714,0.7999563661783858,0.21021413881650067,-36.56125589169988,3.1617687831855705
1032715,0.7716780049858105,0.2647615749362806,-36.507632714301494,3.242374631230993
1032716,0.7458828233202857,0.3083204293911702,-36.440660767449735,3.3079243406316037
1032717,0.724729909322184,0.3386407712790736,-36.361775110881325,3.3567350443460455
1032718,0.7103036964429578,0.35389228644270154,-36.27247802342615,3.3877433697368122
1032719,0.7045188780893884,0.35276825346828744,-36.174259652249646,3.4005193699272045
1032720,0.7090279510894141,0.33457219312279307,-36.068519825293365,3.395249497872941
1032721,0.7251356673279564,0.2992822430540639,-35.95649401561862,3.3726897300789647
1032722,0.7537245344818609,0.24758967910155402,-35.83918965396614,3.33409377698328
1032723,0.795196129421719,0.18090720179777026,-35.71733617939249,3.2811211595317373
1032724,0.8494309148780925,0.1013457867793519,-35.59135293319644,3.215731026176269
1032725,0.915769408505395,0.01165955125471292,-35.46133936090357,3.1400690221574616
1032726,0.9930161164567008,-0.08484021910137311,-35.32709001899577,3.0563547653029723
1032727,1.0794678666535973,-0.18440060271053468,-35.188134531112155,2.9667760915670924
1032728,1.1729651200224815,-0.2829668129899031,-35.043802332619876,2.873396462954923
1032729,1.2709650144836862,-0.3763415322010765,-34.89331246441041,2.7780818604860755
1032730,1.37063314836217,-0.46035698276486414,-34.73588091747753,2.682448536156458
1032731,1.4689513323027983,-0.5310529597884208,-34.57084321655622,2.587835927480864
1032732,1.5628354176189498,-0.5848518512827997,-34.39778334849926,2.4953034390484574
1032733,1.6492592946736846,-0.6187237644358293,-34.21666119083726,2.4056497492841413
1032734,1.7253787285698827,-0.6303329162228906,-34.027930952080446,2.3194520136562904
1032735,1.7886493436404332,-0.6181578280075858,-33.8326409248692,2.2371200975257413
1032736,1.8369336530200304,-0.5815796437852099,-33.63250686602348,2.1589604586230773
1032737,1.8685917077211602,-0.5209330101119294,-33.4299475707997,2.085240939657807
1032738,1.8825509603150472,-0.43751641506097155,-33.228080904144385,2.016252614982291
1032739,1.8783517733649804,-0.33356007898582457,-33.03067502899453,1.952361449750238
1032740,1.856166664160402,-0.21215209523158016,-32.842049317107154,1.8940421953248376
1032741,1.8167914815068433,-0.0771251878162098,-32.666931478588744,1.8418929792544687
1032742,1.7616095543885106,0.06709148815662705,-32.51027124342995,1.796626067297427
1032743,1.6925297129217496,0.21564937537756096,-32.37701844510054,1.7590339828349912
1032744,1.6119012674775721,0.36347897897188924,-32.27187530916389,1.7299322282223304
1032745,1.5224101777303112,0.5055002083265798,-32.19903465656704,1.7100817226560174
1032746,1.4269607698833147,0.636835876805109,-32.16191809013496,1.7000958505262949
1032747,1.3285491585259226,0.7530177988575462,-32.162929924654705,1.7003392171265188
1032748,1.230134036127561,0.8501761257117096,-32.20324056082001,1.7108248703066393
1032749,1.1345112633616756,0.925202903233223,-32.282614846153656,1.731119230649612
1032750,1.0441977672556166,0.9758821280930289,-32.3992997475866,1.7602635659424246
1032751,0.9613306101250501,1.0009797141513117,-32.549979883379606,1.7967194774054138
1032752,0.8875857129412299,1.0002891533196767,-32.72981050324932,1.8383459149032066
1032753,0.824119716248699,0.9746309009515512,-32.932531328715726,1.8824135684954817
1032754,0.7715374995564411,0.9258049953412065,-33.1506587432201,1.925658381043903
1032755,0.7298866980646983,0.8564996686452737,-33.3757554076989,1.9643773376000335
1032756,0.6986783622424648,0.7701600954199302,-33.59876404725383,1.9945626492178088
1032757,0.6769327467050626,0.6708238442446087,-33.8103947211601,2.0120712978026467
1032758,0.6632471550467579,0.5629311816835553,-34.00154491162772,2.0128210897848655
1032759,0.6558819235427393,0.45111923440104607,-34.163736124989576,1.9930055992288453
1032760,0.6528596488335737,0.3400105407798541,-34.2895423115782,1.9493153585371674
1032761,0.6520726564377787,0.23400578322964372,-34.372989044223935,1.879153735609744
1032762,0.6513926519055383,0.1370910390243741,-34.40990086945514,1.7808342231180734
1032763,0.6487773270584001,0.05266857986207649,-34.39817487938761,1.6537461213359896
1032764,0.6423680732015503,-0.016580707781320817,-34.33796723769166,1.498478063758294
1032765,0.6305747422296544,-0.06879723139174963,-34.23177532056054,1.316888722244862
1032766,0.6121429319617359,-0.10300046386779566,-34.0844095368735,1.1121180571363918
1032767,0.5862011059578378,-0.11910256225179082,-33.90285169286047,0.8885345548408381
1032768,0.5522863460256486,-0.11787842340424359,-33.69600320536324,0.6516180142830849
1032769,0.5103476623416715,-0.10089407393943245,-33.47433191547562,0.4077805592433615
1032770,0.4607277416577613,-0.07039824782257637,-33.24943303842792,0.16413226922302532
1032771,0.40412526209145794,-0.029183808884338962,-33.03352383940679,-0.07179855705822703
1032772,0.341540815924055,0.019573563077584556,-32.83889594845409,-0.29237785477539124
1032773,0.2742096627778282,0.072490368874461,-32.67735110604489,-0.4901967175387007
1032774,0.20352624433219893,0.12615449910027193,-32.55964838604122,-0.6584037418465135
1032775,0.1309645714867242,0.17729947118887,-32.494993095468175,-0.7910213747933649
1032776,0.057999788029666315,0.2229644245954178,-32.490589496056685,-0.8832313050720023
1032777,-0.013965059961868812,0.26063221404476,-32.55128351281966,-0.9316121386660634
1032778,-0.08366303758002915,0.28833884545568905,-32.679314396257546,-0.9343161822050727
1032779,-0.1500145938714241,0.30474962865950267,-32.87418594227692,-0.8911766057514182
1032780,-0.2121638629520641,0.309198870968618,-33.13266706099538,-0.8037370409709036
1032781,-0.26949868810117455,0.301692380666767,-33.44892109022655,-0.6752015655207686
1032782,-0.3216535788661094,0.2828739174199789,-33.81475856864907,-0.5103059407902233
1032783,-0.36849707581948526,0.25395898652011706,-34.21999729400514,-0.31511811921249466
1032784,-0.4101044307833921,0.21664046511884888,-34.652916599915045,-0.09677413520694379
1032785,-0.44671862125595735,0.17297271301883607,-35.100777739944704,0.13683433587429863
1032786,-0.4787025284231127,0.12524111889300416,-35.55038601332023,0.377407099247728
1032787,-0.506486480419757,0.07582545244734405,-35.988665914969644,0.616599060137579
1032788,-0.5305143413643708,0.02706457675174241,-36.40321900858558,0.8463821463387157
1032789,-0.5511924057757654,-0.01886977762626799,-36.78283663045519,1.05938708836839
1032790,-0.5688443796204442,-0.0600832199772827,-37.117943877482666,1.2492089712580638
1032791,-0.5836759968778668,-0.09504691290144594,-37.40095165703702,1.410660619489103
1032792,-0.5957509100962103,-0.12266032809229678,-37.62650198901488,1.539962596929748
1032793,-0.6049802131219522,-0.14228483549298568,-37.79159665694956,1.63486103514013
1032794,-0.6111254851693849,-0.15374843269316363,-37.895605729317204,1.6946690937156184
1032795,-0.6138155435871266,-0.1573217968124913,-37.940159301007455,1.7202314643356746
1032796,-0.6125757571044088,-0.15366857610000922,-37.92893297265179,1.7138162705436062
1032797,-0.6068673848755878,-0.1437742210186945,-37.86734026036325,1.6789409177552477
1032798,-0.5961347311760306,-0.12885820337160742,-37.76215527134614,1.6201444607245203
1032799,-0.5798567079667678,-0.11027615873239141,-37.621087723861834,1.5427197941065223
1032800,-0.5575991547174833,-0.08941821857560488,-37.4523339512478,1.4524195576801722
1032801,-0.5290641807756824,-0.06761049534213796,-37.26413354345434,1.3551547595322393
1032802,-0.49413371520509675,-0.04602533587542874,-37.06435448834765,1.2567007219394593
1032803,-0.45290332823912877,-0.02560661357550825,-36.86012877148912,1.1624259194871296
1032804,-0.40570397584179124,-0.007014189933550724,-36.657557600075776,1.0770571179698816
1032805,-0.3531104279284293,0.009409693549068041,-36.46150205770132,1.0044931925322758
1032806,-0.2959342510604383,0.023649740476664398,-36.27546448286908,0.9476735779241513
1032807,-0.23520245236824092,0.036003008615283244,-36.10156413738343,0.9085060888411566
1032808,-0.17212162298275982,0.047041371420419614,-35.9406046177633,0.887856050214811
1032809,-0.10802985236146047,0.057554376872221015,-35.792222056149924,0.8855919358823682
1032810,-0.0443383645514148,0.06847588825799242,-35.65510161555734,0.9006831026725137
1032811,0.017533685424463426,0.08080001058497699,-35.52724393362748,0.9313398602812246
1032812,0.07622769982501944,0.09549163961204471,-35.406261236143855,0.9751851579192181
1032813,0.13051415215199727,0.11339732521752095,-35.28968098946547,1.0294458516403866
1032814,0.17935677924760515,0.1351625953802283,-35.17523747249295,1.0911509402817818
1032815,0.22196900901764757,0.1611611634743601,-35.061128216415206,1.1573233308090818
1032816,0.2578593681629971,0.1914400703520839,-34.946219551068104,1.2251540991728143
1032817,0.28686335460129453,0.2256849190123076,-34.83018893648192,1.2921502051487235
1032818,0.30915948830665124,0.26320763393937746,-34.713593464601,1.3562475189173424
1032819,0.3252687388649947,0.30295726456440775,-34.5978633139616,1.4158852268406092
1032820,0.3360367072894241,0.3435541177386205,-34.48521901040218,1.4700385004395387
1032821,0.34259948453742145,0.3833453500013029,-34.37852049672081,1.518211105658833
1032822,0.34633477050934663,0.42047878727505195,-34.28106055562848,1.5603921048875535
1032823,0.3488001063353447,0.4529915233166446,-34.19631691773903,1.5969820783041162
1032824,0.35166135182792924,0.4789084292539662,-34.12768078234037,1.6286967198631992
1032825,0.35661530454749724,0.496344622300478,-34.078180400420734,1.656456354590576
1032826,0.3653094767091469,0.5036072296224773,-34.05022236765554,1.6812720194794288
1032827,0.37926334046902055,0.49929073752032144,-34.04536478823108,1.7041356132829186
1032828,0.39979427475140433,0.48236081196508135,-34.06414347279358,1.725924491411102
1032829,0.42795275045194253,0.45222190261732687,-34.10596021709373,1.7473261173109023
1032830,0.4644687398540535,0.40876568161302446,-34.16904354395864,1.7687880274372085
1032831,0.5097125096611563,0.35239733754212166,-34.25048541256977,1.7904963300817294
1032832,0.5636714107462911,0.28403879541799587,-34.346352550416455,1.8123830920113682
1032833,0.6259436852214134,0.20510844626887648,-34.4518675928123,1.8341612153130002
1032834,0.6957493205273789,0.1174785796324497,-34.56164770736827,1.8553820517720105
1032835,0.7719577795134288,0.023412564065335706,-34.66998536833681,1.8755093389491773
1032836,0.8531309836062989,-0.07451492343906896,-34.77115656379973,1.8940040416254549
1032837,0.9375794597390257,-0.1735111720921476,-34.8597352718417,1.9104110125573432
1032838,1.0234296267096423,-0.2706679099693029,-34.93089467989224,1.9244395316900427
1032839,1.1086984925865637,-0.36306774352932125,-34.980674899708546,1.9360292161221757
1032840,1.1913732005227904,-0.44789054450788063,-35.006199193179214,1.9453947856234346
1032841,1.2694913157923557,-0.5225149885870475,-35.005829293423254,1.953046906378437
1032842,1.3412194275620553,-0.5846111681890963,-34.97924265512635,1.9597824821412861
1032843,1.4049256670846553,-0.6322204527814622,-34.92743012303163,1.9666455878065703
1032844,1.4592445473866709,-0.6638202888659522,-34.85261228909499,1.9748602684416412
1032845,1.5031308894527886,-0.6783715023557486,-34.75807777325167,1.9857381853227347
1032846,1.5359010302199458,-0.6753468849742834,-34.647954742792834,2.0005683454123586
1032847,1.5572594867419425,-0.6547403078351139,-34.5269261624413,2.0204939797725916
1032848,1.567311478010845,-0.6170577182997002,-34.39991018372271,2.04638919625367
1032849,1.5665599212408565,-0.5632902178962422,-34.27172013916211,2.078740619365824
1032850,1.5558877055161866,-0.49487144877591904,-34.14672842540854,2.1175458180113877
1032851,1.5365262224823761,-0.4136211183912545,-34.028554347515545,2.162236682436973
1032852,1.5100113145114165,-0.3216777631332077,-33.91979608337391,2.211635351351541
1032853,1.4781289149011874,-0.22142313454709744,-33.82182263472099,2.26394753769647
1032854,1.442851998854551,-0.11540144298250275,-33.734641335067984,2.3167969480640433
1032855,1.4062712771668062,-0.0062359832981444515,-33.65685039598648,2.367301809709864
1032856,1.3705224901050337,0.10345355107279339,-33.585681354732024,2.412191667807241
1032857,1.3377123807935465,0.21113123729372274,-33.51712981259151,2.4479587054755774
1032858,1.309846195375978,0.3144193873226349,-33.44617091420226,2.471037874448858
1032859,1.288758823310763,0.4111660977141957,-33.36704806699603,2.478006058274814
1032860,1.2760518712120774,0.4995039245108994,-33.27361963571722,2.465789218790885
1032861,1.2730389146151981,0.5778980282194417,-33.15974673483275,2.4318672143099356
1032862,1.2806999055358612,0.6451835037585223,-33.019700245307135,2.3744624226339193
1032863,1.2996469782288629,0.7005901727783884,-32.84856501641795,2.2927025021485306
1032864,1.3301016181356191,0.7437557260084411,-32.64261823608059,2.186745094657063
1032865,1.3718848868528717,0.7747257933065496,-32.3996609856303,2.057856723163709
1032866,1.4244200054447693,0.7939419844270617,-32.119284988282686,1.908439887058531
1032867,1.4867475578611595,0.8022179421401157,-31.80305740100708,1.7420040843648847
1032868,1.5575527951558417,0.8007041767803249,-31.45461152059216,1.5630797694491263
1032869,1.6352039993773564,0.790842485083072,-31.079637050691318,1.3770779158108504
1032870,1.7178008478485052,0.7743113044853371,-30.685767813123594,1.1901006163691152
1032871,1.8032311583989553,0.7529630350927256,-30.282371235153175,1.0087108712971429
1032872,1.8892340873425317,0.7287557252548371,-29.880245281210364,0.8396712314105154
1032873,1.9734682473509353,0.703680347163635,-29.491238814219766,0.6896644725252891
1032874,2.0535822268764288,0.6796858765755067,-29.12780946991737,0.5650081989898396
1032875,2.1272851648488604,0.6586053321157961,-28.802540707207896,0.47137868349568846
1032876,2.1924156232147474,0.6420840948415281,-28.52764039348079,0.4135568304218507
1032877,2.2470060525162503,0.6315137427393555,-28.31444141152621,0.3952078392142049
1032878,2.28934125321972,0.627973478818525,-28.17292944702371,0.4187068370476273
1032879,2.3180081053329187,0.6321821692189785,-28.111318362690163,0.4850182229839077
1032880,2.331935971633002,0.6444622709928652,-28.13569348154752,0.5936357905666656
1032881,2.3304255724579366,0.6647184198649184,-28.249736278554263,0.7425850577772803
1032882,2.313165964326804,0.6924312820488013,-28.454544333116978,0.9284888066664445
1032883,2.2802385367412197,0.726667765715897,-28.74855619046231,1.146693933892099
1032884,2.232108759744191,0.7661080891893232,-29.127579320106978,1.3914511213008092
1032885,2.1696050645156983,0.8090892282838053,-29.58492310930281,1.6561409183296143
1032886,2.0938864066384357,0.8536633294940369,-30.111628251752332,1.9335342910419915
1032887,2.0063997515358722,0.897669566758227,-30.696783976804774,2.216077170883954
1032888,1.908828488835657,0.938817113158397,-31.327917006484522,2.4961842909165854
1032889,1.8030346109749196,0.974775982615329,-31.991434891783943,2.7665297794305355
1032890,1.6909962532132383,1.0032722409184087,-32.673105284508324,3.0203212862250663
1032891,1.5747432331984905,1.0221843184953374,-33.35854924910777,3.2515456121423094
1032892,1.4562930078317853,1.0296358507024943,-34.033729481606635,3.4551763312647212
1032893,1.337589264589308,1.0240814966267069,-34.685412113630385,3.6273336381366965
1032894,1.220445397494883,1.0043821740225536,-35.301584331821736,3.765391555621767
1032895,1.106495547922789,0.9698655459495029,-35.871810829047206,3.8680286794100915
1032896,0.9971537373761679,0.9203699828941464,-36.38751767899669,3.935221750242846
1032897,0.8935833306924807,0.8562692895997759,-36.842193306682944,3.968184470680809
1032898,0.7966768590683199,0.7784773289254387,-37.23150136670685,3.9692557421592904
1032899,0.7070475319387816,0.6884311131903967,-37.55330381519281,3.941744002671972
1032900,0.6250315272237723,0.5880538555121574,-37.807597056992606,3.8897364925128675
1032901,0.5507004471878859,0.47969907747664137,-37.996369307292525,3.817883940593431
1032902,0.48388328406072384,0.3660775061039272,-38.12338485587662,3.7311697728062803
1032903,0.4241966375455622,0.25016983258991626,-38.1939116852845,3.6346767675322558
1032904,0.3710808309507182,0.13512908174082122,-38.21440468246298,3.533360929386271
1032905,0.3238407122767108,0.024175760013837224,-38.19216227992356,3.431843511937962
1032906,0.28168872883257334,-0.07950932974918219,-38.13497274704679,3.3342299944347418
1032907,0.24378825103036383,-0.17289067096037056,-38.05076635493876,3.243963251472746
1032908,0.20929585833172482,-0.2531787117661298,-37.947290763419765,3.163717489537042
1032909,0.17740031859171082,-0.3179211943019375,-37.83181857269487,3.0953334147179996
1032910,0.14735681259870675,-0.36508242970911003,-37.71090638638121,3.03980054956768
1032911,0.11851556589469138,-0.39310772323256715,-37.590209737402155,2.9972831538209435
1032912,0.090344069527974,-0.40097112046744127,-37.47435747143865,2.967185527076273
1032913,0.062442503014514886,-0.3882059920954953,-37.36689440090973,2.948255629553025
1032914,0.034552187027709555,-0.3549173378166748,-37.27028591274256,2.938717532752971
1032915,0.006557486828579465,-0.3017766393626179,-37.18598209381214,2.93642586179345
1032916,-0.021518123034084548,-0.23000007764568875,-37.11453355364039,2.939033637695953
1032917,-0.049521250582802656,-0.1413121265895827,-37.0557500513622,2.944164641670994
1032918,-0.07718179264619787,-0.037895949251223596,-37.008890471698166,2.949581858308458
1032919,-0.1041294224334095,0.07766682782148181,-36.97286970557718,2.9533420312796435
1032920,-0.12991190588925072,0.2024645290087132,-36.94646942547892,2.9539289895207914
1032921,-0.15401449645543167,0.33332995207148786,-36.928538673593685,2.950359335315943
1032922,-0.17587963961851208,0.46691846048084124,-36.91817381577601,2.9422557168250147
1032923,-0.19492612425597228,0.5997877821704889,-36.91486347229548,2.929882868529109
1032924,-0.21056716357619265,0.7284775638197419,-36.91859202324513,2.9141457765279646
1032925,-0.22222739499689323,0.8495877438180911,-36.929893835279884,2.8965499330770346
1032926,-0.22935853180986765,0.95985387229436,-36.94985578399465,2.8791256179830267
1032927,-0.23145371981905932,1.0562194625885917,-36.98006802659329,2.864320555175738
1032928,-0.22806118881131981,1.1359039334141177,-37.02252402553293,2.8548652363405416
1032929,-0.21879698481536913,1.1964661594534851,-37.0794789938168,2.853619289268637
1032930,-0.20335736420983064,1.2358631294284277,-37.153272011867834,2.8634051101668767
1032931,-0.18153125570768566,1.2525031271400922,-37.24612486205306,2.886837708896856
1032932,-0.15321276817695337,1.2452931525519153,-37.35992937553479,2.926159626954087
1032933,-0.11841341854262771,1.2136792444967042,-37.496037915247804,2.983089583731829
1032934,-0.07727436577550204,1.15767934132765,-37.6550671192695,3.0586910707030492
1032935,-0.030077732910063906,1.0779069462124091,-37.8367301557363,3.153269070554934
1032936,0.022743325693290812,0.9755841318578793,-38.0397115970992,3.2663013094084574
1032937,0.08059701807258143,0.8525424574980466,-38.26158886099452,3.3964060007003276
1032938,0.1427286786426726,0.7112098236156585,-38.49881039678089,3.5413493241009597
1032939,0.2082207184599566,0.5545818437237647,-38.74673509627689,3.6980934374187413
1032940,0.2759986711182938,0.3861758002347399,-38.999732401670926,3.862883499705419
1032941,0.3448433898614763,0.2099670608711623,-39.25133978413811,4.03136964272935
1032942,0.41341081091032167,0.030306674560394313,-39.4944741284575,4.198759843689379
1032943,0.48025950922943234,-0.14817939706951677,-39.721684847055634,4.359996224122956
1032944,0.5438864700746443,-0.32070794030718747,-39.92543989036269,4.509948294169338
1032945,0.6027702849356814,-0.48247132022227757,-40.09842852788064,4.64361329795341
1032946,0.6554213741215328,-0.6287823599139911,-40.233868645999536,4.756315979071607
1032947,0.7004374106705326,-0.7552270196179617,-40.325802611043,4.843898731076848
1032948,0.7365625288994574,-0.8578202660101558,-40.369364862810954,4.902892423120982
1032949,0.7627477119298798,-0.9331593278824972,-40.36101052605437,4.93066203108074
1032950,0.778209508561227,-0.9785678888047736,-40.29869121457718,4.9255192920701125
1032951,0.7824844014212916,-0.9922247340015721,-40.181969008757314,4.8867977328420125
1032952,0.7754755034141776,-0.9732706261446153,-40.012062831923686,4.814886966498239
1032953,0.757488533108868,-0.921886734321933,-39.791824488966085,4.711224677294398
1032954,0.7292544193227464,-0.8393396419915075,-39.525645330713466,4.5782473462135975
1032955,0.6919356219945694,-0.7279878840909619,-39.219295444521926,4.419300170569095
1032956,0.647114878881058,-0.5912475271533003,-38.879707180057444,4.238513399857555
1032957,0.5967647698081977,-0.4335147394359941,-38.5147097051701,4.040647913070925
1032958,0.543198060807627,-0.26004623430801965,-38.1327299135986,3.83091908039829
1032959,0.4889991007589226,-0.07679937705219532,-37.742473268452976,3.6148057272884913
1032960,0.4369383397712389,0.10976350777234777,-37.35259975323317,3.3978529785992295
1032961,0.38987214612856447,0.29290048733205104,-36.971411199644734,3.1854779019649553
1032962,0.35063158933456157,0.46583725072736876,-36.60656368526206,2.9827854397490774
1032963,0.3219042280484971,0.6220269115764282,-36.26481938281494,2.794403386345705
1032964,0.3061140039876909,0.755411636520729,-35.951847669148535,2.6243420084346543
1032965,0.305304505923609,0.8606756038587993,-35.67208327518073,2.475883696735587
1032966,0.32103121739688706,0.9334773048704005,-35.42864790443399,2.351506866163503
1032967,0.35426779865804153,0.9706509540450825,-35.22333528851205,2.252845406866905
1032968,0.40533217366992136,0.9703664425791181,-35.05665790805741,2.1806843176588053
1032969,0.4738361239371028,0.9322398359347679,-34.92795019153519,2.134989421209773
1032970,0.5586624507891867,0.8573876115628584,-34.835520813556165,2.114968882433613
1032971,0.6579722189296875,0.7484198193052551,-34.77684255181523,2.1191615528277508
1032972,0.7692431796506706,0.6093709979177575,-34.74876539530897,2.145545144975257
1032973,0.8893396720840179,0.4455689840167612,-34.74774275671964,2.1916600305294467
1032974,1.0146113221705295,0.26344649467868386,-34.770055607014164,2.2547402535794303
1032975,1.1410189527343473,0.07030085533273192,-34.81202015098295,2.331845048002806
1032976,1.26428269902153,-0.12598876666674516,-34.87016799641571,2.4199838496386894
1032977,1.3800462541254557,-0.3172747990853388,-34.94139045203249,2.5162301947854733
1032978,1.4840516482059019,-0.4954734237286907,-35.02303787748806,2.617818135788457
1032979,1.572316700367669,-0.6529010082346036,-35.112968656134484,2.7222171287889467
1032980,1.6413076573737573,-0.7826001787505448,-35.20955014783918,2.8271847388017926
1032981,1.6880992611575514,-0.8786410691300708,-35.31161102502978,2.930794583125825
1032982,1.7105149744265205,-0.936384385579108,-35.41835080550374,3.0314409620972222
1032983,1.7072405709053193,-0.9526940193588751,-35.52921512576111,3.127821807653273
1032984,1.6779048667287166,-0.9260886090555671,-35.64374659184969,3.2189034395151896
1032985,1.6231237380259353,-0.856825067517181,-35.76142417133622,3.303871703748602
1032986,1.5445040374510643,-0.7469091606296289,-35.88150356685021,3.3820741334609514
1032987,1.4446063501943243,-0.6000315026909211,-36.002870786386104,3.4529587194536346
1032988,1.3268667386625141,-0.42143140597510476,-36.12392241101991,3.5160147140842857
1032989,1.1954801748143302,-0.21769291623754558,-36.24248406413209,3.5707212962904173
1032990,1.0552495757446316,0.0035182176570543373,-36.35577455487948,3.616508225003239
1032991,0.9114061474223477,0.2337658479253931,-36.460422193104506,3.6527322100699724
1032992,0.7694077273221664,0.4641900285141832,-36.55253618990279,3.6786714367276483
1032993,0.6347239331402528,0.6858738092517539,-36.62783348300279,3.6935403920186345
1032994,0.5126164268135254,0.890214474430731,-36.68181572138395,3.6965238533245626
1032995,0.4079237125326802,1.0692832796344156,-36.709988515716,3.6868284214658478
1032996,0.324859698480876,1.2161576928574753,-36.70811352042252,3.663749189509092
1032997,0.266834897689402,1.3252113635203615,-36.67247886718294,3.62674655666395
1032998,0.2363075537349643,1.3923502421103586,-36.60017512504698,3.5755292031961345
1032999,0.23467193751717294,1.4151833703269567,-36.489355370639224,3.510134922504663
1033000,0.26218855701719396,1.3931211910945989,-36.33947185851895,3.431007338885712
1033001,0.3179604270284049,1.3273969703145767,-36.151463379416654,3.339057470696888
1033002,0.39995559923050567,1.2210112940993685,-35.92788581605049,3.2357072745391404
1033003,0.5050764958281606,1.0786009763214486,-35.672972540045436,3.1229100846765676
1033004,0.6292730579384396,0.9062390248816911,-35.392616701778614,3.0031439596881846
1033005,0.7676953874001948,0.7111741332760857,-35.09426939994509,2.879374842427663
1033006,0.9148795954509794,0.5015215269079119,-34.78675506965976,2.754989982599995
1033007,1.064959346933266,0.285918561127998,-34.48000561487312,2.6337008462788165
1033008,1.2118946704432072,0.07315998982898682,-34.18472590950417,2.5194210758267483
1033009,1.3497078946982344,-0.12817122303508005,-33.9120004341619,2.4161222283114996
1033010,1.472717646820831,-0.3100611759860685,-33.67285679916223,2.3276732845228154
1033011,1.575760675052116,-0.46539562378298444,-33.477806375663974,2.2576713187316306
1033012,1.654392665708492,-0.5882495737746208,-33.33638281163126,2.209272403129288
1033013,1.7050592700992933,-0.6741239596499994,-33.25670360769964,2.1850320542376642
1033014,1.7252307516991001,-0.7201190751701341,-33.24507074792173,2.186761436453274
1033015,1.713494292944728,-0.7250384293447367,-33.30563622661226,2.2154099772030484
1033016,1.6696010996633002,-0.6894193929353644,-33.44015004187385,2.270981496374378
1033017,1.5944657672590565,-0.6154892528307564,-33.64780313530873,2.352488453556518
1033018,1.4901184050475258,-0.5070498660944137,-33.92518002691924,2.4579506114524112
1033019,1.3596117607424267,-0.36929605881294003,-34.26632436331486,2.584438924976826
1033020,1.2068882584044782,-0.2085770927948702,-34.66291972100177,2.728165674510765
1033021,1.0366120309769766,-0.03211130690180649,-35.10457769462289,2.8846168083502937
1033022,0.8539735103408488,0.15233313897542092,-35.57922560851884,3.048723335950017
1033023,0.6644753058925634,0.3367773799120746,-36.073575877455305,3.2150634806439915
1033024,0.473708439302911,0.5133759353814283,-36.57365823712081,3.378087835927312
1033025,0.28712855261587317,0.6747511647585197,-37.065390542762906,3.5323568664956735
1033026,0.10984149358242716,0.8143038143484406,-37.53516105831527,3.6727787586374614
1033027,-0.05359263005908606,0.9264866191451454,-37.97039554407783,3.794836605502967
1033028,-0.19932846369089322,1.0070293780476567,-38.360081304906295,3.8947930367731347
1033029,-0.3243711184039006,1.0531070505907836,-38.69522229191912,3.9698611513687547
1033030,-0.42667267313403573,1.063443391734119,-38.969202849497925,4.0183329574880045
1033031,-0.5051862394072658,1.038347303099456,-39.17804091702532,4.03965743364271
1033032,-0.5598753352844789,0.979680103723958,-39.32051802288624,4.034463666968374
1033033,-0.5916788856083878,0.8907564936110028,-39.3981769831383,4.004526000718992
1033034,-0.6024341130809562,0.7761835419771509,-39.41518742680202,3.9526722204922216
1033035,-0.5947610520602548,0.6416454993732398,-39.37808418494319,3.882638454589951
1033036,-0.5719145927390156,0.4936442528542836,-39.29539087730573,3.79887689102196
1033037,-0.5376105254197603,0.33920630431964444,-39.17714647378258,3.706325665178735
1033038,-0.4958340489268229,0.18556940844717917,-39.03435932051663,3.6101527752676135
1033039,-0.4506392804771974,0.03986249864202391,-38.878414678903866,3.5154860529578293
1033040,-0.4059492585665932,-0.09120737097729305,-38.7204655080396,3.427142920379609
1033041,-0.36536509779483023,-0.20164794899833494,-38.57083821655486,3.349374678312486
1033042,-0.3319928081748659,-0.2864420331757158,-38.438485202651634,3.285639458607832
1033043,-0.3082956970559313,-0.3417643429231432,-38.33051165920405,3.238415521340434
1033044,-0.29597909552036655,-0.3651453783854592,-38.25180163683633,3.2090653706233288
1033045,-0.2959116386253075,-0.35557642591019234,-38.20476484462834,3.1977592593503124
1033046,-0.3080874290817294,-0.3135505087202863,-38.18921688200018,3.203462465448523
1033047,-0.33162988439999047,-0.2410383514222351,-38.20240060503663,3.2239882742512944
1033048,-0.3648369947649092,-0.14140079543357545,-38.23915102812707,3.256115498256652
1033049,-0.40526610149746634,-0.01924100525365254,-38.29219145242931,3.2957633398203923
1033050,-0.44985351579941246,0.11979650218397593,-38.35255018791212,3.33821673460867
1033051,-0.4950640277477096,0.269271736650946,-38.410074891776574,3.378390064973479
1033052,-0.5370627983557399,0.42222908649861673,-38.45401986464734,3.4111163583803488
1033053,-0.5719021238401603,0.5714994225841846,-38.47367287956118,3.431445264688977
1033054,-0.595714235528442,0.7100112478408274,-38.45899093553391,3.4349351318082366
1033055,-0.6049015723959651,0.8310977377998358,-38.4012111866269,3.4179233399100446
1033056,-0.5963151027546008,0.9287866259202413,-38.29340110167713,3.3777585051558927
1033057,-0.5674135099981648,0.9980605433430024,-38.13092210306104,3.312983401582507
1033058,-0.5163955367321141,1.0350766271789644,-37.91177826514403,3.223456604617014
1033059,-0.44229920041455534,1.037336043472098,-37.63683080553686,3.1104059374226134
1033060,-0.3450640947977284,1.003796639862083,-37.30986569553836,2.976409543914566
1033061,-0.225552817161048,0.9349232188392769,-36.93750705686219,2.825304232170623
1033062,-0.08553169903373045,0.8326738814646644,-36.52898020433699,2.662024666855459
1033063,0.07238880571053569,0.7004232803048559,-36.09573569128388,2.4923821801778394
1033064,0.24485159613892712,0.5428253519117625,-35.65094986375261,2.3227926480689245
1033065,0.4278833123404397,0.36562238160343075,-35.20892705764621,2.159967198960073
1033066,0.617052467804663,0.17540784182953137,-34.78443171248262,2.010581408770141
1033067,0.8076478560602117,-0.020646229134424446,-34.39198678263773,1.8809413728773998
1033068,0.9948691468340455,-0.215085727242635,-34.045169317101056,1.7766613906824986
1033069,1.1740215069410487,-0.4004821818411884,-33.75594266817165,1.702372728593636
1033070,1.340705703820194,-0.5697386255413125,-33.53405651375868,1.6614770772347494
1033071,1.4909951248149207,-0.7163804074070496,-33.386546338441036,1.6559582427773003
1033072,1.6215922708047361,-0.8348187682005067,-33.31735829893293,1.6862626582747937
1033073,1.7299575693641533,-0.9205756734805036,-33.32711966859361,1.7512553826555466
1033074,1.8144058930145883,-0.97046139808758,-33.413063860625115,1.8482532546191657
1033075,1.8741662391162013,-0.9826966318974324,-33.56911749482216,1.9731347220090272
1033076,1.909402601262074,-0.9569752847108319,-33.7861452351588,2.1205215758744593
1033077,1.921195365088851,-0.894465037758394,-34.05234013979412,2.284022816384001
1033078,1.9114849478693443,-0.797746875642782,-34.35374026261586,2.456528405559421
1033079,1.8829801382545597,-0.6706963289477798,-34.674847783617864,2.6305388346137826
1033080,1.8390362887191967,-0.5183127887264426,-34.99931969518751,2.798513505767751
1033081,1.7835085202203895,-0.346504448436672,-35.310695290693154,2.9532197330640897
1033082,1.7205867253055194,-0.16183864486644828,-35.59312960007098,3.0880670973673356
1033083,1.6546204561397608,0.028730733369097497,-35.83209299686632,3.197408161577555
1033084,1.5899407884882508,0.21814728214538295,-36.01500517220593,3.2767912867733178
1033085,1.530687502240822,0.3995343856254991,-36.13177542727695,3.323154507554358
1033086,1.4806481229984034,0.5664645898826266,-36.175221452664964,3.334949102679968
1033087,1.4431162721754396,0.7132042783304319,-36.141349884556625,3.3121888780604753
1033088,1.4207743519806477,0.8349238851037618,-36.0294856469012,3.256422520931617
1033089,1.4156050642903688,0.9278650568067418,-35.84224749098597,3.170631977968326
1033090,1.4288349671390024,0.9894592544499791,-35.58537161114621,3.059062451825293
1033091,1.460910891896871,1.0183937735072026,-35.267392772693974,2.926991946299962
1033092,1.5115098093992807,1.0146236629105276,-34.89920243748184,2.780454251280449
1033093,1.5795799132780692,0.979331239176662,-34.49350587394257,2.625929347202698
1033094,1.663410499930352,0.9148359865123432,-34.06420667814866,2.470017159765771
1033095,1.7607260879676188,0.8244610990639637,-33.62574802217439,2.319110765878008
1033096,1.8687999351046716,0.7123637863641181,-33.19244306800125,2.17908539790628
1033097,1.9845810349774846,0.583338283915713,-32.77782823407334,2.0550196144164734
1033098,2.1048287315475345,0.44260089117276064,-32.3940684829244,1.9509612496408815
1033099,2.2262484027724683,0.2955680465356331,-32.05144254288027,1.8697494273430624
1033100,2.345622415189327,0.1476366236479302,-31.757930004451087,1.812900413711517
1033101,2.4599309722567084,0.003976539381331751,-31.518920303191464,1.7805631116509113
1033102,2.566457941534239,-0.13065601730481852,-31.337053242507324,1.7715447641083477
1033103,2.6628776810265813,-0.252077131149264,-31.212195722392423,1.7834040559342268
1033104,2.7473205022207905,-0.3568004386117662,-31.141554264863213,1.8126074242266192
1033105,2.8184151147622876,-0.4421253947580455,-31.119914492519584,1.8547391026989466
1033106,2.875307184499477,-0.5061863740060712,-31.139990860841056,1.9047528055940326
1033107,2.917655290001734,-0.5479635850169733,-31.192870024704554,1.9572533897625708
1033108,2.945605657668024,-0.5672574404721685,-31.268523673727334,2.006793732600345
1033109,2.959748246802717,-0.5646299563134872,-31.356363016839552,2.0481713746094745
1033110,2.961057902777679,-0.5413188880256776,-31.44580538309773,2.0767090038695644
1033111,2.950823733503647,-0.4991302378673371,-31.52682889384133,2.088507617885999
1033112,2.930571643426163,-0.4403163903637724,-31.590485953203984,2.0806590532160176
1033113,2.901983406194097,-0.3674465142525096,-31.629348499621862,2.051405760734014
1033114,2.8668167836981198,-0.2832765213393693,-31.63786787160951,2.000242575520108
1033115,2.8268299110868615,-0.1906249517808006,-31.612629945407765,1.9279546716738931
1033116,2.7837134480891135,-0.09226020968309737,-31.552497678250184,1.8365915036200615
1033117,2.739032694648095,0.009195914371066078,-31.45863218180323,1.729376324096543
1033118,2.694181464016069,0.11134535196520277,-31.334396316639634,1.6105576942620432
1033119,2.650348696982105,0.21206964209361634,-31.18514598439673,1.4852100285969805
1033120,2.608498038164978,0.30956374590819924,-31.017920908584234,1.3589921900830273
1033121,2.5693598865170455,0.402348669290088,-30.841053092146172,1.23787694640058
1033122,2.533434784109943,0.48926503012953093,-30.663711922493427,1.1278632124609755
1033123,2.501006474883415,0.569450429783589,-30.495412160020706,1.0346862998303763
1033124,2.4721627428890884,0.6423039949743,-30.345508273836366,0.9635387894272409
1033125,2.4468218416374605,0.7074427834696234,-30.22270161998874,0.9188154056860338
1033126,2.4247622602903265,0.7646535799353064,-30.134585728454507,0.9038945980822034
1033127,2.4056534914656074,0.8138452045602745,-30.087251852815516,0.920966264280931
1033128,2.389085906848484,0.8550044442473029,-30.08497618376963,0.9709146220926368
1033129,2.3745982385037276,0.8881590236454209,-30.130002955503613,1.0532611382936374
1033130,2.3617011147208604,0.9133500070651366,-30.222434359509094,1.166170431253227
1033131,2.349895942109747,0.9306151758207493,-30.36023300049762,1.306518910497128
1033132,2.33868889287118,0.9399837780490223,-30.53933643328614,1.4700231785921887
1033133,2.3275996006112947,0.9414825436596364,-30.753877835409334,1.6514226159927854
1033134,2.3161656571872213,0.9351512006825046,-30.996499416853187,1.8447062780874695
1033135,2.303943257100366,0.9210656728145835,-31.25874522960313,2.0433758924403738
1033136,2.29050499913929,0.8993665587458479,-31.53151110733307,2.240731003882012
1033137,2.27543631336041,0.8702895463680315,-31.805528598294778,2.430164067467746
1033138,2.258331415676629,0.8341948724435194,-32.07185788217685,2.6054511661740807
1033139,2.2387900176195736,0.7915926015400049,-32.32236449907368,2.7610257277753245
1033140,2.2164159781194335,0.7431612921823367,-32.55015199510414,2.8922210017428833
1033141,2.1908179721447048,0.6897579582462069,-32.74993147210165,2.995471618070448
1033142,2.161613584025157,0.6324171864958071,-32.91830495347151,3.068463585660705
1033143,2.1284365682207964,0.5723386298000032,-33.05394737077626,3.1102257359270684
1033144,2.090946773435437,0.5108636736255893,-33.15767832218032,3.1211591920861728
1033145,2.0488427485788407,0.44944114534360835,-33.2324165300623,3.103001911354935
1033146,2.001875724402132,0.3895843071650071,-33.283020093095715,3.0587312058443286
1033147,1.9498648556593177,0.3328207398500266,-33.316018108239774,2.9924080045257573
1033148,1.892711872135669,0.2806379739909478,-33.33924779487473,2.9089705668108334
1033149,1.830413971167714,0.23442834789985742,-33.36141577709525,2.8139877621520717
1033150,1.7630744904464533,0.19543528545923253,-33.391605156773096,2.7133835250828455
1033151,1.690910100740814,0.16470462708537695,-33.43875170092965,2.613144558931197
1033152,1.614253103314982,0.143043821025491,-33.51112270744574,2.519028328345496
1033153,1.5335493985551507,0.130990830316479,-33.615821098041955,2.4362833088937528
1033154,1.4493507677268411,0.1287950622682685,-33.7583441055396,2.3693960712848097
1033155,1.362302753128916,0.13641040857089004,-33.94222082664296,2.3218779188315484
1033156,1.2731273483424967,0.1535018869446985,-34.16874973090045,2.2961018087312755
1033157,1.182602317117248,0.17946427133354972,-34.436851356125814,2.293197234655715
1033158,1.0915374848372086,0.2134520119730238,-34.74304804042693,2.313009975760928
1033159,1.0007496150475277,0.2544186131823233,-35.08157147599357,2.3541272912276665
1033160,0.9110368674914929,0.3011626667121357,-35.44459727256719,2.413968426482193
1033161,0.8231547691693194,0.35237844761276593,-35.82259473741442,2.488935644617522
1033162,0.7377947084162301,0.4067076509161853,-36.20477652007556,2.5746184390284714
1033163,0.6555661719291392,0.46278966368355845,-36.5796257121032,2.666040716240163
1033164,0.5769838227940008,0.5193075886037362,-36.93547448613937,2.7579379689472314
1033165,0.5024606125349623,0.5750274413806118,-37.261103837500066,2.8450504646507984
1033166,0.43230660349413724,0.6288290282847622,-37.546332732287674,2.9224165029588685
1033167,0.3667340307542439,0.6797272687196438,-37.78256526198059,2.985650498094906
1033168,0.305868148947565,0.7268831032862121,-37.96326614789018,3.031190920574489
1033169,0.24976310216972905,0.769604273282498,-38.08434021135183,3.0565057245566396
1033170,0.19842171147566467,0.8073374475579741,-38.14438954372092,3.060242056250977
1033171,0.1518182244527695,0.8396517396507115,-38.144834022537324,3.042311821051243
1033172,0.10992185328880488,0.8662167985398238,-38.089891359305255,3.003910691462587
1033173,0.07272025841678745,0.8867771489744519,-37.98640516497324,2.9474638181390254
1033174,0.040240366910887365,0.9011258686690822,-37.84353619810362,2.8765043559201278
1033175,0.012565581875416506,0.9090794385659885,-37.6723263644801,2.7954887772101755
1033176,-0.010152200793473128,0.9104567642924284,-37.48515724410197,2.7095582591490777
1033177,-0.0276870171172813,0.9050640576736534,-37.29512900721155,2.6242579597293743
1033178,-0.039740460289165475,0.8926876798328875,-37.115391710859356,2.545229375422812
1033179,-0.0459510219473959,0.8730957504945672,-36.95846127618866,2.4778904124815693
1033180,-0.04591098143423966,0.8460487978315295,-36.83555998668286,2.427123012617816
1033181,-0.03919030720797447,0.8113192482135758,-36.75601024149131,2.3969819916606685
1033182,-0.025366975637728828,0.7687195790580605,-36.726718293398605,2.390443093439484
1033183,-0.00406181648462186,0.7181361082310157,-36.751774143671426,2.4092035573219936
1033184,0.025023557920489648,0.6595673362507369,-36.832191300368805,2.4535478262705044
1033185,0.06206749080323774,0.5931639557724169,-36.965800530056,2.522285298385516
1033186,0.1070902056428486,0.5192677468182095,-37.14730553816153,2.6127653818684315
1033187,0.1599194306877916,0.4384460046099878,-37.36849952387872,2.7209703492075286
1033188,0.22016132287371254,0.3515190612362217,-37.6186348284822,2.841682671352028
1033189,0.2871791659613172,0.2595781152892652,-37.88492601409473,2.9687186185411085
1033190,0.36008152324351117,0.16399085134277938,-38.153165284892125,3.095218401414755
1033191,0.43772099918310303,0.06639416664497448,-38.408417631356436,3.2139773467968284
1033192,0.5187055259192064,-0.03132871275139969,-38.63576242188238,3.317802720376551
1033193,0.6014215692870325,-0.12708529517402042,-38.82104341278024,3.399877469527261
1033194,0.684069049729985,-0.21862499179435796,-38.951590254584865,3.4541128831777796
1033195,0.7647082133731207,-0.3036031768758484,-39.016873630168185,3.4754715528441884
1033196,0.8413161637450464,-0.3796557550848907,-39.00906461595327,3.4602459645614863
1033197,0.9118516840968245,-0.44448160923645375,-38.92346541324058,3.4062758987710153
1033198,0.9743257895406192,-0.4959292887469005,-38.75879108152413,3.3130939466996585
1033199,1.0268752218204131,-0.5320844044140983,-38.51728841323898,3.1819916853466172
1033200,1.067836009738719,-0.5513536907686977,-38.204684965094465,3.0160020939342567
1033201,1.0958136718497413,-0.5525416148790655,-37.829972705076514,2.8198000143792474
1033202,1.1097473632714716,-0.5349162696432337,-37.40503362229544,2.5995229431595526
1033203,1.108964136803995,-0.49826043564617006,-36.94412870651271,2.3625224652057244
1033204,1.0932211865345323,-0.4429055786175469,-36.46327671135864,2.1170584953935876
1033205,1.0627335240867661,-0.36974609374227435,-35.97954928928344,1.8719490805524075
1033206,1.0181852840844088,-0.28023313573228353,-35.51032073892038,1.6361945728518654
1033207,0.9607234354787123,-0.17634679860505087,-35.072508612895646,1.4185938672356337
1033208,0.8919333456908697,-0.06054761366742715,-34.68184188362993,1.227370967363351
1033209,0.813796631144937,0.06429161201742929,-34.35219013179246,1.0698286349913608
1033210,0.7286326241252465,0.1949706659953656,-34.09498738470988,0.9520468194080164
1033211,0.6390247784548205,0.3280615068649947,-33.91877521129877,0.8786378848188484
1033212,0.547734610739081,0.460018131876055,-33.82888532143193,0.852569836176581
1033213,0.45760657590107373,0.5872930113203614,-33.82727405325526,0.8750646322184514
1033214,0.3714676012763041,0.7064551424779985,-33.91251398535756,0.9455749978999946
1033215,0.2920246609684404,0.8143054493535203,-34.079938056459696,1.0618382910658983
1033216,0.2217647606237114,0.9079851932209784,-34.321926106806586,1.2200029792286273
1033217,0.16286192852838738,0.9850725331020822,-34.62831628602779,1.414820629252813
1033218,0.1170943451839891,1.043664389102297,-34.986915777489806,1.6398909513206679
1033219,0.08577604255331206,1.0824391056374694,-35.38408484524005,1.88794755928463
1033220,0.0697054645928189,1.1006988173655274,-35.80536401448953,2.151169902179991
1033221,0.06913367428188434,1.0983891551973959,-36.23610944123874,2.4215046528234088
1033222,0.08375397678915278,1.0760955892673036,-36.66210759772321,2.6909818664706497
1033223,0.11271323735529387,1.0350171374975,-37.07013993109194,2.9520116606616504
1033224,0.1546448681473848,0.9769183873626031,-37.448471753134086,3.1976480184462424
1033225,0.20772222939700868,0.9040619192247942,-37.78724443148597,3.421808810882048
1033226,0.26973056234096365,0.8191237864318347,-38.078756475770035,3.619444658423362
1033227,0.33815423409840856,0.7250956965178106,-38.317626688771185,3.7866519044574942
1033228,0.410276330048809,0.6251778430965078,-38.50083604503603,3.9207277402838048
1033229,0.4832854099529234,0.5226666679619014,-38.627655943807575,4.020169498009735
1033230,0.5543856421561179,0.4208417793064728,-38.69947038018308,4.0846213398906706
1033231,0.6209054734331123,0.32285651206514115,-38.71951128377675,4.114776485118682
1033232,0.6803998326589592,0.231636544072219,-38.69252603704542,4.112243313936896
1033233,0.730742272912484,0.14978935518092562,-38.62439947174035,4.079385471392059
1033234,0.7702019764804581,0.07952858711984905,-38.52175504014359,4.01914665522908
1033235,0.797502987301562,0.02261553385384526,-38.391561149001355,3.934872736266068
1033236,0.8118633566711249,-0.019681106204350256,-38.24076129894573,3.830139211533507
1033237,0.8130120603832575,-0.046605702721012686,-38.07595118034177,3.708594941416579
1033238,0.8011839234890987,-0.057917032437921394,-37.90311648110228,3.5738288059616625
1033239,0.7770921024319172,-0.05387050878757124,-37.72744615188977,3.429266192939178
1033240,0.7418803898582038,-0.03518366749185577,-37.553221531882826,3.2780955172489104
1033241,0.6970574428219306,-0.0029866659151097006,-37.38378819173049,3.123229099202566
1033242,0.6444166312446727,0.04123884532005418,-37.22160334756577,2.967294786889439
1033243,0.5859447606974926,0.09573018303651375,-37.06834808981005,2.812653988209432
1033244,0.5237247276705298,0.15851928419950032,-36.925095283234604,2.6614432089660314
1033245,0.4598364404917509,0.22751046051419602,-36.792514206844004,2.515630094232986
1033246,0.39626121478691245,0.30055657701375355,-36.67109368490407,2.3770772898357055
1033247,0.33479346083806555,0.37553124038279756,-36.561365562855435,2.2476057394117066
1033248,0.27696443469429,0.4503933344958711,-36.464110116303814,2.1290507826981497
1033249,0.22398096337838258,0.523242816255817,-36.38052502467956,2.023302888183939
1033250,0.17668242253229904,0.5923654483522386,-36.31234370881465,1.9323276197652155
1033251,0.13551716788501653,0.656266082228949,-36.261894663025245,1.8581623627429826
1033252,0.10053949863368576,0.7136901987068428,-36.23209151525814,1.8028854763060602
1033253,0.07142689318496104,0.7636336640191067,-36.2263534188334,1.768558888465392
1033254,0.047515866731988994,0.8053426882592145,-36.24845901051035,1.757146228104086
1033255,0.02785489327840185,0.8383042806020323,-36.30234008488536,1.7704099075305513
1033256,0.011270874626177606,0.862230024397272,-36.391826846470224,1.8097930497661656
1033257,-0.003554321193013591,0.877034649618892,-36.520359083855304,1.8762930295994389
1033258,-0.018001577185796258,0.8828119349733857,-36.69068221829503,1.9703351718243285
1033259,-0.033430432487917904,0.8798097733549053,-36.904545505783936,2.0916545090372214
1033260,-0.05109779205860818,0.8684063554772057,-37.16242294713086,2.2391942951255617
1033261,-0.07208367930237258,0.8490888793750965,-37.46327681975069,2.4110299325450804
1033262,-0.09722740151200387,0.8224363492397069,-37.804379547165624,2.6043247051281693
1033263,-0.12707751068114254,0.7891064237047957,-38.18120849283702,2.8153225893160205
1033264,-0.16185765726651222,0.7498270566991735,-38.587425171091695,3.0393826599701854
1033265,-0.20145031286513504,0.7053922248568517,-39.01494698827431,3.2710574365142504
1033266,-0.245397951239138,0.6566605402722496,-39.45411115275061,3.5042140084336797
1033267,-0.29292255678999385,0.6045563546955159,-39.89392930463026,3.7321955846716177
1033268,-0.3429613196360232,0.550071282746243,-40.322422846756545,3.9480179109926534
1033269,-0.39421676138951844,0.4942643649600778,-40.72703113751616,4.144595988963621
1033270,-0.4452184036898382,0.43825938402304826,-41.09507193950825,4.314990850229826
1033271,-0.4943930734099982,0.3832380782450783,-41.414236790372044,4.452666865209427
1033272,-0.5401398057686537,0.33042743962052656,-41.67309852652771,4.551749443914502
1033273,-0.5809059441735688,0.2810805975489329,-41.861609071417554,4.607271867061867
1033274,-0.6152604993764772,0.23645095530625124,-41.971563192690915,4.615400124529768
1033275,-0.6419615689645155,0.1977598510201018,-41.997005745089496,4.573624939717383
1033276,-0.6600144182582222,0.16615835286535888,-41.93456376187316,4.480912812935438
1033277,-0.6687177730951269,0.1426845351047836,-41.783683446949155,4.337806316041416
1033278,-0.6676967821988754,0.12821861161354317,-41.5467601115815,4.146468850187334
1033279,-0.6569207890060669,0.12343756329701218,-41.22915298014623,3.9106703267349374
1033280,-0.6367060912157009,0.12877263826435217,-40.839078799093826,3.6357110601304603
1033281,-0.60770368465394,0.14437203143287086,-40.38738745718238,3.3282858322473143
1033282,-0.5708727550257263,0.17007132991033969,-39.88722286613074,2.996290125369983
1033283,-0.5274417996870566,0.20537450603336338,-39.35358520685264,2.648576875788884
1033284,-0.4788591138845514,0.24944750771969182,-38.802808085585404,2.2946702531123906
1033285,-0.4267352013062644,0.30112558889319735,-38.251968770022735,1.9444453720269297
1033286,-0.37277965277394387,0.3589357351334325,-37.718257734186984,1.6077874998881867
1033287,-0.318735276070829,0.4211337731815738,-37.21833126401076,1.2942426522153394
1033288,-0.26631235215746035,0.4857558024458514,-36.76767481846019,1.012673210744986
1033289,-0.21712496663265793,0.5506815317947236,-36.38000038925033,0.7709306556498601
1033290,-0.17263260312944634,0.6137081574886111,-36.066706341412406,0.5755600456812228
1033291,-0.13408834347676915,0.6726312294731069,-35.83642183964837,0.43154825221824367
1033292,-0.10249560376483845,0.7253287546705961,-35.69465510542305,0.342125693991175
1033293,-0.07857451683802345,0.7698450771713523,-35.64356135792029,0.30863095951611574
1033294,-0.06273899625692447,0.804470436512186,-35.68184204698772,0.33044490355213935
1033295,-0.05508460552983602,0.8278121219778803,-35.804782606668425,0.40499915148570276
1033296,-0.05538743919750376,0.8388538021340898,-36.00442518405234,0.5278579349588585
1033297,-0.06311388152695159,0.8370001772463684,-36.26987525019689,0.6928738926760596
1033298,-0.07744037409049852,0.8221043309720784,-36.587727895474465,0.8924115732940013
1033299,-0.09728275326741638,0.7944767520455068,-36.94260020674066,1.1176323095862828
1033300,-0.12133380722807048,0.7548750880443805,-37.31774788445925,1.3588294882806826
1033301,-0.14810808526630984,0.7044753950194187,-37.695742470244504,1.6058027996218873
1033302,-0.17599262954605974,0.6448261843705102,-38.059181080815414,1.848256170874836
1033303,-0.20330220379620037,0.5777876440847728,-38.39140100424998,2.0762048692351893
1033304,-0.22833736808446264,0.5054588272115003,-38.67716977121353,2.280375373309802
1033305,-0.24944440188592115,0.430096862599214,-38.90332143833091,2.4525816545249843
1033306,-0.2650744532026996,0.3540315391571835,-39.05931129736565,2.586061582233029
1033307,-0.273841035381778,0.27957950317830177,-39.137667426993886,2.675760553181822
1033308,-0.274573871557187,0.208962409902968,-39.13431795494925,2.7185484583799955
1033309,-0.2663672761770506,0.144231821887276,-39.0487795532274,2.713361036753351
1033310,-0.24862113184917825,0.08720465048306156,-38.884195671009884,2.6612567923990413
1033311,-0.22107295557075576,0.039410682314645604,-38.647225842050865,2.5653882215964674
1033312,-0.18381965593237226,0.0020547979564446528,-38.34778368622819,2.430884452536013
1033313,-0.1373272321495714,-0.02400637584736008,-37.99863824072955,2.26465122031089
1033314,-0.08242721896519481,-0.038273667682155954,-37.61489034257188,2.075093446632304
1033315,-0.020299433625558028,-0.04060088733686532,-37.21334533906942,1.8717712653975944
1033316,0.04755937415798089,-0.031178309532991805,-36.8118105778696,1.6650045356136687
1033317,0.11938080947076794,-0.010506892407889906,-36.428341667825485,1.4654387949302752
1033318,0.19318346465717703,0.020634467709977455,-36.08047254686973,1.283593146880931
1033319,0.26684342031961944,0.0612260585773351,-35.78445892218273,1.129406913491004
1033320,0.33817431901536976,0.11004584172382739,-35.55457056155492,1.0118063359786174
1033321,0.40501455781130846,0.1657076903156075,-35.402460428578905,0.9383087285232176
1033322,0.46531852677679514,0.22669683156995094,-35.33663612298934,0.9146803450644589
1033323,0.5172481335911816,0.2914016706968616,-35.36206004450695,0.9446649509244573
1033324,0.5592600569464248,0.35814136284782616,-35.479894681692876,1.0297945646267213
1033325,0.5901857136869721,0.425189106955376,-35.68740374978799,1.1692909737617774
1033326,0.6092982320426175,0.4907925642128131,-35.97801526158873,1.360063117459928
1033327,0.6163644607921103,0.5531914228418569,-36.34154266550708,1.59680077461734
1033328,0.6116766444529698,0.6106355321527865,-36.76455824909417,1.8721620657407239
1033329,0.5960623803775936,0.6614044567227766,-37.23090021107674,2.177045748562101
1033330,0.5708702822643155,0.7038309181666994,-37.72229479231986,2.500939033853534
1033331,0.5379308554916159,0.7363296089988672,-38.21906570189417,2.832324329118891
1033332,0.49949282568016246,0.7574326597964857,-38.70090259524181,3.1591292655947125
1033333,0.45813678191989976,0.7658324987179078,-39.14765403644117,3.4691997790021056
1033334,0.41666845688616305,0.7604316982294486,-39.540115115887296,3.7507774347923917
1033335,0.37799598470890483,0.740398645953379,-39.86077547507219,3.992960561015479
1033336,0.34499646895294384,0.7052270224471869,-40.09449649141653,4.186129345251
1033337,0.32037732673152663,0.6547958428214391,-40.22909140650702,4.322317841005882
1033338,0.30653919308668875,0.5894264117419249,-40.25578541311602,4.395518120585805
1033339,0.30544712829995546,0.509931976221667,-40.16953805278151,4.401903987697176
1033340,0.31851697648884714,0.4176549616870615,-39.96921633194791,4.339965990215599
1033341,0.34652305254422305,0.3144873482889054,-39.657619291816346,4.210556344867898
1033342,0.3895330099705154,0.20287011063533694,-39.241346427409844,4.016838782316028
1033343,0.44687425849315704,0.08576728109612618,-38.730526243063125,3.7641502474502215
1033344,0.5171346293547727,-0.033386722002231854,-38.13841839320622,3.4597826847425197
1033345,0.5981995900225158,-0.15076870467770181,-37.48090567231046,3.112694094369788
1033346,0.6873249275227992,-0.26227644873974115,-36.77590302089149,2.7331637572939895
1033347,0.7812431281982422,-0.36366448788855277,-36.04270884220105,2.3324075608625123
1033348,0.8762996561843102,-0.4507023209991663,-35.301325563937105,1.9221695872306999
1033349,0.9686132572735401,-0.5193492751719929,-34.57177926434981,1.5143081675995902
1033350,1.054253351742935,-0.565938792224662,-33.87346500878732,1.1203934122580441
1033351,1.129426159552702,-0.587363815319837,-33.224540842910116,0.7513305834465228
1033352,1.190660597849776,-0.58125409364748,-32.64139584516898,0.4170256250643814
1033353,1.2349854205496287,-0.5461360103372256,-32.138204088601626,0.12610162672051511
1033354,1.2600871599936432,-0.48156441109643117,-31.726581382884802,-0.11432365805884136
1033355,1.2644414389295935,-0.38821851604462326,-31.415347739644506,-0.29879538915764725
1033356,1.2474098823522726,-0.267953906544951,-31.21040137425109,-0.42361056191547647
1033357,1.2092966952719613,-0.12380445697900895,-31.114696689227735,-0.4868418410173694
1033358,1.1513610795999973,0.04006922971827838,-31.128322141769182,-0.4882983371392391
1033359,1.0757835821884347,0.2184864998422907,-31.248663861000907,-0.42943108920104195
1033360,0.9855863148265928,0.4054066984440618,-31.47064245531968,-0.31319165437370494
1033361,0.8845105818055843,0.5941380316085964,-31.78700492981204,-0.14385370741646336
1033362,0.7768563114297727,0.7775882297700447,-32.188655379613735,0.07319162590592183
1033363,0.6672901444492253,0.9485479178415597,-32.66500732658241,0.3316556107277039
1033364,0.5606316320185996,1.0999936629858964,-33.20434052666697,0.624576473877388
1033365,0.4616266703928602,1.2253984983427655,-33.794148753856604,0.9445395020020543
1033366,0.3747196426935205,1.3190344571031585,-34.42146643812515,1.2838843554842636
1033367,0.3038356675087072,1.376252635903546,-35.073166265218255,1.6348942919532512
1033368,0.25218306599349427,1.3937265580462306,-35.7362222654144,1.9899628840002015
1033369,0.22208696612274906,1.369645241180359,-36.39793442907626,2.3417352624516656
1033370,0.2148622667261148,1.3038452821215658,-37.04611791735018,2.683225083184423
1033371,0.2307327866253846,1.197872945148304,-37.669259057991326,3.007907882283851
1033372,0.2688018808850697,1.054970735141182,-38.256642912530936,3.3097935770294598
1033373,0.3270763334868956,0.8799866052490896,-38.798461876407806,3.583484029603804
1033374,0.40254328765765207,0.6792072366646226,-39.28590814408697,3.8242168816283924
1033375,0.49129667929000165,0.4601216428715299,-39.711260250663585,4.027902683415858
1033376,0.588708575038862,0.23112309102251852,-40.06796939416951,4.191158967927166
1033377,0.6896369295407575,0.0011626203263495046,-40.35074647881061,4.311343123075467
1033378,0.7886605727888154,-0.2206315387421724,-40.55565551508354,4.386587895444688
1033379,0.8803297518271587,-0.4253507621100082,-40.68021117958799,4.415839196438491
1033380,0.9594206719145224,-0.6047014471562251,-40.72347803505254,4.3988960090406515
1033381,1.021181740048342,-0.7513798595420418,-40.68616458262436,4.336449189650351
1033382,1.0615595181796689,-0.8594089181108057,-40.57070638913293,4.230116888642617
1033383,1.0773932504094086,-0.9244196487498543,-40.38132813065962,4.08247112765056
1033384,1.0665685749101945,-0.9438636483385727,-40.12407408154082,3.8970502911366465
1033385,1.0281227460733247,-0.9171447541018789,-39.80679667639135,3.67835168199301
1033386,0.9622963289504604,-0.8456633497850925,-39.439093969821535,3.431799161591934
1033387,0.8705281971700083,-0.73276896200456,-39.032188137021166,3.1636811452998184
1033388,0.7553944103966319,-0.583622507055985,-38.59873843671468,2.8810546323854638
1033389,0.6204937741763202,-0.40497376766495,-38.1525875206678,2.5916148562390533
1033390,0.47028504396660703,-0.20486273968584973,-37.70843941501418,2.303528247862378
1033391,0.3098842143859991,0.007740904975631968,-37.2814782006709,2.0252332452545105
1033392,0.14483093872582745,0.22334505955859027,-36.88693341869375,1.7652118001008585
1033393,-0.019164370375729763,0.4323696826864027,-36.53960640025777,1.5317386326113176
1033394,-0.17648053871628544,0.6255884466548844,-36.25337374425456,1.3326165390241542
1033395,-0.3218405896877104,0.7945574284064172,-36.0406875091267,1.1749082641671271
1033396,-0.4505496126661174,0.9320101881969206,-35.91209309164221,1.0646757159482714
1033397,-0.5587038439850324,1.032200407690077,-35.87578728561162,1.0067390099966564
1033398,-0.6433613324119463,1.0911757129870907,-35.937237253866236,1.0044665017217589
1033399,-0.7026663452740634,1.1069694617724732,-36.09888393614241,1.0596085431773783
1033400,-0.7359213263186053,1.0797009328973137,-36.359943283513566,1.1721828982566902
1033401,-0.7436041515540307,1.0115788987719694,-36.716323632962734,1.3404210771562572
1033402,-0.7273292330941831,0.90680759084557,-37.160664381918224,1.5607800143507435
1033403,-0.6897552336623511,0.7713989244284187,-37.68250476619573,1.8280229351675052
1033404,-0.6344437909058321,0.6128995888369045,-38.268576636731424,2.135367444111822
1033405,-0.5656763651108219,0.44004473884390083,-38.903215499998296,2.4746973014267515
1033406,-0.4882385358213749,0.26235453237702155,-39.568875910770856,2.836830913066444
1033407,-0.4071819590064909,0.08969187258921056,-40.24673280058432,3.211836925755734
1033408,-0.327575299989248,-0.0681988883618487,-40.917342963688434,3.589382776674094
1033409,-0.2542564527023758,-0.2021506279207012,-41.5613428068538,3.9591035216824255
1033410,-0.19159756024665378,-0.30400822242906356,-42.16015027709435,4.310973959405899
1033411,-0.14329428654359444,-0.3670198680151256,-42.6966432920977,4.63566845582317
1033412,-0.11218886088050001,-0.386166702322997,-43.155782359421785,4.924891546536099
1033413,-0.10013525451040281,-0.3584153527506266,-43.525152923159126,5.171666324900243
1033414,-0.10791259059817924,-0.2828820036981402,-43.795402395896566,5.370566269518845
1033415,-0.13519087397770096,-0.16089980717299532,-43.96055016305898,5.5178798758206815
1033416,-0.1805501551986766,0.004013379815487321,-44.01816250077663,5.611703569805171
1033417,-0.24155190735056672,0.20628562230757086,-43.969380543679996,5.6519563035177764
1033418,-0.3148594114179339,0.43851479298507706,-43.81880505477424,5.640318940807699
1033419,-0.39640100449677856,0.6917754565459261,-43.57424138021125,5.580099883478112
1033420,-0.48156823981927266,0.955995269781781,-43.24631888687524,5.476035752171556
1033421,-0.5654399751720713,1.2203846669569633,-42.84800486726516,5.334037618432857
1033422,-0.6430215664319326,1.4739007083058864,-42.39403586029526,5.1608959998620945
1033423,-0.7094880291570693,1.7057244887989427,-41.900294552254735,4.9639599183627015
1033424,-0.7604202475607572,1.9057318010570807,-41.38316034234956,4.750805400092716
1033425,-0.7920225987440909,2.0649353799740027,-40.85886399644026,4.528909884660098
1033426,-0.8013130614966931,2.175880960441642,-40.34287790191097,4.305349617902732
1033427,-0.7862761094435012,2.2329782932567084,-39.849366192606595,4.086532208808411
1033428,-0.7459721057386675,2.232753897477736,-39.390719451000436,3.877977918541468
1033429,-0.680598494088724,2.174014651413259,-38.97719114292601,3.6841575394738646
1033430,-0.5914996415077604,2.0579148870413047,-38.61665028423492,3.5083938484987494
1033431,-0.48112515708950887,1.8879244279045881,-38.31445286612994,3.352826770574984
1033432,-0.35293850038566393,1.6696990636750213,-38.07343585569683,3.218442946719681
1033433,-0.21128060290991013,1.4108593618299534,-37.894025468541535,3.1051638958195307
1033434,-0.06119387740926318,1.1206873384359126,-37.774447848029915,3.0119846811564464
1033435,0.09178506684871474,0.8097537494709159,-37.71102394234615,2.937151770959479
1033436,0.24185476041931078,0.48949276243576867,-37.69852894836221,2.8783679451305377
1033437,0.3831901486336762,0.1717412693174579,-37.730595130763575,2.833011847784238
1033438,0.5101859584226408,-0.13173748542739536,-37.80013042543244,2.798356701487061
1033439,0.6176903453896071,-0.40972544758586515,-37.89972957875963,2.7717742431826653
1033440,0.7012199433167144,-0.6519975925801786,-38.02205595485498,2.75091260336368
1033441,0.7571465671222599,-0.8497272482272344,-38.160176309690165,2.7338386733831865
1033442,0.7828478516917577,-0.9958323229508339,-38.30783133715878,2.7191367153111474
1033443,0.7768157628935964,-1.0852487731721352,-38.459631517013676,2.7059582609788864
1033444,0.7387185150314,-1.1151204744496337,-38.61117490066403,2.694023967312114
1033445,0.669413609098516,-1.0848984265185515,-38.75908556922839,2.68357817700535
1033446,0.5709121769034222,-0.9963460478602224,-38.90097780041571,2.6753018706338825
1033447,0.44629616017840645,-0.8534515134137941,-39.03535768140686,2.6701926751031255
1033448,0.29959266834451354,-0.6622512649620491,-39.16147455712989,2.669421744250793
1033449,0.13561106881253926,-0.4305736691129438,-39.27913807576645,2.674178423435513
1033450,-0.040249985135333684,-0.1677134450404405,-39.388520889751206,2.68551658678171
1033451,-0.22221677252521166,0.11594821851530927,-39.48996391599556,2.7042137303320906
1033452,-0.40436728453557064,0.40936219356881554,-39.58380083518263,2.7306538203381794
1033453,-0.5808605020520038,0.7012505017022554,-39.6702188710531,2.7647444794878773
1033454,-0.7461586767623027,0.9805479859393501,-39.7491648082985,2.8058744758253824
1033455,-0.8952335633964825,1.236828577552448,-39.82030585357322,2.8529161050572642
1033456,-1.0237484951759708,1.460699136845939,-39.88304815358349,2.9042736650773375
1033457,-1.1282086278198307,1.6441448624969388,-39.93660972109024,2.9579749187011615
1033458,-1.2060743668166105,1.780814042187177,-39.98014225133404,3.0118005237412517
1033459,-1.2558336636747964,1.8662310477329693,-40.01289121309528,3.0634429428607914
1033460,-1.2770314517541574,1.8979305801980282,-40.034379875542804,3.110683741728539
1033461,-1.2702551498759487,1.8755090894665807,-40.044599221981166,3.1515766863147623
1033462,-1.2370790458198802,1.8005937802819703,-40.04418747283951,3.1846234860603837
1033463,-1.179970011502748,1.6767317078616402,-40.03458000924758,3.208928854847169
1033464,-1.102159839199046,1.5092053038476343,-40.01811313669472,3.224321783813313
1033465,-1.0074903743241712,1.3047840704605662,-39.99806737477921,3.2314326979165036
1033466,-0.9002390584908521,1.0714239858412802,-39.97864050791503,3.231718223533039
1033467,-0.7849320420591192,0.8179278280518835,-39.96484411763251,3.2274287812766125
1033468,-0.6661537585649797,0.55358201446348,-39.962320843924196,3.2215160088064527
1033469,-0.5483611109508186,0.28778485638671913,-39.97709251998742,3.2174853680064257
1033470,-0.435709504107786,0.02968189770691624,-40.01524324109705,3.2191966698383943
1033471,-0.331898361312841,-0.2121773339073215,-40.08255772989843,3.2306250401988743
1033472,-0.2400413654631462,-0.4301476706844709,-40.18413168731982,3.2555937548157052
1033473,-0.16256692251119836,-0.617750066798363,-40.32397876156118,3.297494964298988
1033474,-0.10115156611183831,-0.7698780907268784,-40.50465726558182,3.359014390114126
1033475,-0.0566881150357971,-0.8829422058807895,-40.72694318358526,3.441878353138597
1033476,-0.0292887122232226,-0.9549485206199301,-40.98957320466391,3.5466397341669604
1033477,-0.018321599661543977,-0.9855108805871129,-41.28907823482382,3.6725180334759693
1033478,-0.022478222789620306,-0.9757984277816836,-41.61972414208683,3.8173064018952263
1033479,-0.039867336370600054,-0.9284233995070919,-41.97357409654252,3.977356356665736
1033480,-0.06813038930328827,-0.8472757971282067,-42.3406743158741,4.147643794033736
1033481,-0.10457276231021193,-0.7373143675427161,-42.709364417483506,4.321918999938095
1033482,-0.14630389352780213,-0.6043238459712432,-43.06670130714629,4.492935475891874
1033483,-0.19038047522989376,-0.4546503627413045,-43.39898383745492,4.6527502138356125
1033484,-0.2339459712151324,-0.29492621618941467,-43.69235216105178,4.793080939008009
1033485,-0.27436028590399386,-0.13179660925176212,-43.93343831510088,4.905705321879604
1033486,-0.30931433653091556,0.02834061645549569,-44.1100341768949,4.98288124411462
1033487,-0.33692497420358647,0.17957255933408245,-44.21174209543331,5.017766100556791
1033488,-0.3558071049841574,0.31667716139869667,-44.23057707169288,5.0048142550324135
1033489,-0.36512032304723246,0.4352900908524222,-44.16148392051783,4.940129017942968
1033490,-0.3645889503597345,0.5320281138289775,-44.00273996696518,4.821749117978227
1033491,-0.35449577804021803,0.6045657965843574,-43.75621736438811,4.6498514823597885
1033492,-0.33565077039300645,0.6516645962756332,-43.42749091199088,4.426859594833093
1033493,-0.3093371779343274,0.673156388763867,-43.02577382081171,4.157444959774065
1033494,-0.2772379560036447,0.6698837894886975,-42.563678785569415,3.8484180201969806
1033495,-0.24134660144835363,0.6436023474485456,-42.056814894994055,3.5085134142086667
1033496,-0.2038670604741154,0.5968510735120341,-41.52322994043852,3.148074600756914
1033497,-0.1671074111957125,0.5327985528128527,-40.98272386404457,2.77865229222174
1033498,-0.13337226966931026,0.45507236402836054,-40.45606082091398,2.412533678239854
1033499,-0.1048580772155941,0.36757961385337823,-39.96411447168875,2.0622240760719666
1033500,-0.08355658508370593,0.27432743749275224,-39.526988345387714,1.7399061801565077
1033501,-0.07116970588940062,0.1792507648016868,-39.16315016710007,1.4569027827784138
1033502,-0.06903924622089759,0.0860540710094258,-38.88862143545948,1.223169022051817
1033503,-0.07809373634993014,-0.0019270980084382019,-38.71626360442114,1.0468403906474528
1033504,-0.09881400426018541,-0.08183981572672326,-38.65519206266434,0.9338580856572261
1033505,-0.1312184054263301,-0.15139939171953604,-38.7103495345821,0.8876919937959786
1033506,-0.17486740709409704,-0.2089454588002897,-38.88225983253278,0.9091752798125093
1033507,-0.22888662780017913,-0.2534674087853022,-39.16697375754683,0.9964593092096605
1033508,-0.2920065750242769,-0.28460013833453424,-39.55621252363324,1.1450931622659526
1033509,-0.3626171373671302,-0.3025925629774075,-40.03770204291675,1.3482231597872565
1033510,-0.4388335414581615,-0.3082515717421796,-40.59568365179087,1.5969049377964617
1033511,-0.5185710746694205,-0.3028654308318933,-41.21157592215995,1.8805110591713727
1033512,-0.5996251711018868,-0.2881113855867821,-41.86476025412483,2.1872171880840923
1033513,-0.6797533873630599,-0.2659525479534826,-42.53345314535768,2.5045428637494727
1033514,-0.7567558970413144,-0.2385289483535809,-43.19562046784909,2.819918544184404
1033515,-0.8285518687237079,-0.2080478726496539,-43.829897375496394,3.121254175522838
1033516,-0.8932485062735174,-0.1766787205913778,-44.416469427099756,3.3974816445580127
1033517,-0.9492004078996011,-0.1464564964702006,-44.93787385984575,3.6390438034672585
1033518,-0.9950579479734574,-0.11919743499060988,-45.37968777538799,3.8383082793138508
1033519,-1.0298028626125812,-0.09642994350905698,-45.73107261209514,3.989886788624743
1033520,-1.052770331159501,-0.0793432720072998,-45.98514972672875,4.090843741106696
1033521,-1.063657593116992,-0.06875462550728453,-46.13919631325206,4.140787245136563
1033522,-1.0625192515196833,-0.06509538365962578,-46.19465428541033,4.141838649857078
1033523,-1.0497502417661637,-0.0684158913727623,-46.156953915146524,4.098482493735886
1033524,-1.0260575104525866,-0.07840756276332807,-46.03516747594376,4.017307656721085
1033525,-0.9924217387065377,-0.09444060350517855,-45.84150797810001,3.9066513648460703
1033526,-0.9500518044533546,-0.11561402934154373,-45.590702139566865,3.776165375799116
1033527,-0.9003333533493835,-0.14081547306863929,-45.29926729948787,3.6363259802936074
1033528,-0.8447738395047445,-0.1687879446484959,-44.98472970071881,3.4979128563153083
1033529,-0.7849461446196656,-0.19819928585849209,-44.66481722122346,3.3714802103048753
1033530,-0.7224329994139214,-0.22771134995408818,-44.35666683891557,3.2668472224532454
1033531,-0.658774170089894,-0.256045485946831,-44.07607991631028,3.1926304159755925
1033532,-0.5954182947395259,-0.28204151083609863,-43.836858345393935,3.155839453721314
1033533,-0.5336803349064929,-0.30470770168376554,-43.65024774131671,3.161554205837721
1033534,-0.47470654280657726,-0.32325963995290397,-43.52451017117759,3.2126970179229217
1033535,-0.4194474252152668,-0.3371464203366294,-43.46464021633355,3.3099079962496276
1033536,-0.3686392887842396,-0.34606368917559227,-43.47223115798812,3.4515267385492536
1033537,-0.32279479452218673,-0.34995313847084364,-43.54549417564339,3.6336803884407463
1033538,-0.28220146716287076,-0.3489896896164648,-43.67942246909097,3.8504700650414962
1033539,-0.2469286813688393,-0.3435567232392212,-43.866088476551845,4.094245677702621
1033540,-0.21684209939482293,-0.3342112315321927,-44.095055682730745,4.355953763401112
1033541,-0.1916241258401728,-0.3216415178968886,-44.35388487548541,4.625542065997751
1033542,-0.17079965890186347,-0.30661930363399775,-44.62870769465159,4.892400341473272
1033543,-0.15376570775181508,-0.28994965757954144,-44.904841190995796,5.14581668977503
1033544,-0.13982286733849103,-0.2724213095283449,-45.167416016244964,5.375429621972731
1033545,-0.12820834466133638,-0.25475962160670773,-45.40199396686016,5.57165727952401
1033546,-0.11812852140586333,-0.23758535914279882,-45.595147055213786,5.726083885191145
1033547,-0.1087900717825093,-0.22138084970458355,-45.73497867813388,5.83178996520618
1033548,-0.09942813266467504,-0.20646625442652705,-45.81156952593699,5.8836147810677275
1033549,-0.0893312614530336,-0.1929859257730079,-45.8173321402578,5.8783410653342925
1033550,-0.07786213503378146,-0.18090630971881616,-45.74726756798628,5.81479883178611
1033551,-0.06447382500161182,-0.17002480120593963,-45.599117970589376,5.693886686336886
1033552,-0.048721301569906277,-0.15998925578796996,-45.3734140753213,5.518512659411456
1033553,-0.030268183316983478,-0.15032666282534746,-45.073422527588974,5.29346125616631
1033554,-0.008889335917620056,-0.1404790151558015,-44.70499973168531,5.025194954001123
1033555,0.015530619593085335,-0.1298443916233621,-44.276361589936414,4.721600533083955
1033556,0.04300211856864007,-0.11782048845585748,-43.79778062072575,4.3916922134475005
1033557,0.07343810897787009,-0.10384792754039746,-43.28122472659483,4.045284707416027
1033558,0.10666338531737071,-0.08745072475735827,-42.73995222847385,3.6926502227308173
1033559,0.1424253677429024,-0.06827113069364844,-42.188077984500445,3.344172308453144
1033560,0.18040541182395697,-0.046096876190552166,-41.64012273262935,3.0100072920148233
1033561,0.2202302462008322,-0.020878899097818305,-41.11056299243693,2.699767099051036
1033562,0.26148302894135517,0.007261807694420309,-40.613390002533116,2.4222297318789696
1033563,0.30371417916894194,0.038038124131818486,-40.16169248042619,2.185087580369422
1033564,0.34645127781501167,0.07101221853017288,-39.76727084744882,1.994737833611491
1033565,0.3892084515773914,0.10562095099807198,-39.4402934171272,1.8561199403718311
1033566,0.4314955417755137,0.1412097748448835,-39.18900070106406,1.7726017107295133
1033567,0.4728272701498563,0.1770733446223072,-39.019463846704845,1.745914560260013
1033568,0.5127322958315582,0.21250003284601077,-38.93540229120735,1.7761369050318478
1033569,0.5507634054448557,0.2468170760689576,-38.938064579710606,1.8617243203092035
1033570,0.5865084050093177,0.27943398429518956,-39.02617411776475,1.999582009605822
1033571,0.6196022401845236,0.3098805905957372,-39.19594299166624,2.1851775790578807
1033572,0.6497404266228312,0.33783740626291514,-39.441151272033636,2.412687409239426
1033573,0.6766932779184158,0.3631560415018551,-39.7532949772911,2.6751739604971663
1033574,0.7003212008792947,0.3858675494782903,-40.12179699447626,2.96478763761197
1033575,0.7205901688442489,0.40617779492483125,-40.534279964011404,3.272988489231611
1033576,0.7375866050180738,0.4244501813791174,-40.97689538461549,3.5907829835420526
1033577,0.7515306913408335,0.4411759845198186,-41.43470226245245,3.9089694643132673
1033578,0.7627870998022795,0.45693382025068113,-41.892087496461336,4.218388019201944
1033579,0.7718719303899978,0.4723410032855407,-42.33321707189271,4.5101681965706995
1033580,0.779454844425005,0.4879990435859046,-42.74250737973388,4.77596975728064
1033581,0.7863551401304582,0.5044373575353123,-43.105104260943484,5.008211448964138
1033582,0.793530804745546,0.5220590971146151,-43.40735378477599,5.200281191436626
1033583,0.8020601852826449,0.5410920954012531,-43.63725111338286,5.34672264860833
1033584,0.8131155266092072,0.5615494210761828,-43.78485174585376,5.443393229426195
1033585,0.8279291704680787,0.5832021949931968,-43.84263076851222,5.487588969187165
1033586,0.8477525506164082,0.6055674002602164,-43.80577447011586,5.478130827438296
1033587,0.8738089837404126,0.6279124680591822,-43.67239181154702,5.415409293739502
1033588,0.907241992409606,0.6492774863495112,-43.443637524931574,5.3013854787099834
1033589,0.9490612431118457,0.6685141407427052,-43.12373532375643,5.1395454114884265
1033590,1.0000879924845627,0.6843406840223597,-42.71989958227057,4.934808792036204
1033591,1.060903214790839,0.6954096450899112,-42.24215177206532,4.6933916701474665
1033592,1.1318008751824198,0.7003854156771381,-41.70303491530726,4.422626392104139
1033593,1.212748993668326,0.6980271295047048,-41.11723596763323,4.130743985531945
1033594,1.3033612205564484,0.6872722632659088,-40.50112321248172,3.8266233851628693
1033595,1.4028814864933978,0.6673155288846248,-39.87221355496454,3.5195143202055625
1033596,1.5101828966786393,0.6376785380922942,-39.24858970912807,3.2187440618488337
1033597,1.6237829499123198,0.5982648181415874,-38.64828470405553,2.933415527334867
1033598,1.741874650266345,0.5493971461741499,-38.088658417499104,2.6721084210798782
1033599,1.8623743650756315,0.49183249533301004,-37.58578571764759,2.44259154921605
1033600,1.982984192072281,0.4267540208453853,-37.153884620348336,2.25155997706826
1033601,2.101267318508991,0.3557388082809852,-36.80480217583814,2.1044038416858033
1033602,2.214733863858494,0.2807019218153038,-36.54758115400133,2.0050192910896074
1033603,2.320933604211531,0.20381892995674308,-36.388123806643556,1.955668313564407
1033604,2.4175514705236014,0.1274304267166679,-36.328969104315696,1.9568947547382909
1033605,2.502501460271468,0.053933292300018545,-36.36919133677976,2.0074993368841842
1033606,2.574014660353348,-0.01433593364833969,-36.50442681209815,2.104575932394378
1033607,2.6307166241456215,-0.07521896721071307,-36.7270290021135,2.2436091469965582
1033608,2.671690133493795,-0.12684865038192988,-37.02634711892078,2.4186296585720073
1033609,2.696519753987592,-0.16775024920186996,-37.38912002916686,2.622423864424808
1033610,2.7053155247172502,-0.1969250040075422,-37.79997057702822,2.8467900622739375
1033611,2.698713051783835,-0.21391038563234555,-38.2419805399491,3.082830930521218
1033612,2.677850177301674,-0.21881342438752371,-38.697328777520404,3.321274662686389
1033613,2.644320106525246,-0.21231417774782305,-39.14796563128881,3.5528115752699216
1033614,2.6001023459275325,-0.1956380632130028,-39.57629993490947,3.7684347607252473
1033615,2.547474550508796,-0.17049816211292518,-39.965870823242646,3.959771567132808
1033616,2.488908719458983,-0.13900943411540045,-40.30198094168454,4.119394908644756
1033617,2.426956646131335,-0.10357928353710211,-40.572265621284885,4.241102140954788
1033618,2.364130086692633,-0.06677986940216686,-40.76717546012786,4.3201510502670315
1033619,2.3027811450126756,-0.031208916464535923,-40.88035566503358,4.353444742066023
1033620,2.24498931927494,0.0006534548420264961,-40.90890546622415,4.339657927902678
1033621,2.1924608071249474,0.026583593911322635,-40.85350748615764,4.279299294407017
1033622,2.1464454732582077,0.044741458650380116,-40.71842304129942,4.174708353622299
1033623,2.107676046044298,0.05377815714222825,-40.511350242246436,4.029985047970671
1033624,2.0763333363682435,0.052917524224099406,-40.243151182719906,3.8508549866542845
1033625,2.0520395421993296,0.04200651308033262,-39.92745777305262,3.64447511962124
1033626,2.033880942197981,0.02153091045983437,-39.580167348706375,3.4191846071638485
1033627,2.020459076933983,-0.007405245129546085,-39.218848914746395,3.1842108145067156
1033628,2.009968448490738,-0.04313614894434323,-38.86207975275861,2.9493399938620124
1033629,2.0002977339121246,-0.08352427834476257,-38.52873728106402,2.724564506042785
1033630,1.9891490397462221,-0.1260792525274693,-38.23727067115008,2.5197179755896797
1033631,1.9741696919275897,-0.1680995067172,-38.00498042883452,2.344112108051938
1033632,1.9530900516244412,-0.20682950144764142,-37.84733230549406,2.2061880984691364
1033633,1.9238602604519321,-0.23962313723395098,-37.77733185044909,2.113195379045813
1033634,1.8847783952968662,-0.26410474108623205,-37.804982454324715,2.0709088463993766
1033635,1.8346036932499954,-0.2783185474478619,-37.936848761806296,2.083395713711711
1033636,1.7726479989636281,-0.28085736151155066,-38.17574451275903,2.1528414570183516
1033637,1.6988404507269939,-0.2709631112660425,-38.52055719977238,2.279441594667889
1033638,1.6137612801124606,-0.24859290052753452,-38.96621853088073,2.4613642704918166
1033639,1.5186424692575027,-0.2144462793223553,-39.503823468226486,2.6947860389280653
1033640,1.4153339660318043,-0.1699509815949755,-40.1208967773124,2.974000552468553
1033641,1.306236708471362,-0.11720749561645633,-40.801800604798906,3.291598558601585
1033642,1.1942050341000812,-0.05889449706250901,-41.5282675240802,3.6387117961004893
1033643,1.0824225490467818,0.0018602512134245227,-42.28004358265819,4.005314459405495
1033644,0.9742577454239503,0.06163681222663255,-43.03561688865656,4.380571275422814
1033645,0.8731053169213888,0.11690034008034637,-43.773007718199786,4.753220393256975
1033646,0.7822215489021461,0.16418843247706535,-44.47058838402429,5.111976858757977
1033647,0.7045619662388191,0.20029891483336235,-45.107903384176076,5.445942087459264
1033648,0.6426291906092664,0.22246746386652028,-45.666457108142616,5.74500363647247
1033649,0.5983389140903288,0.22852524366664045,-46.13043783097519,6.00020990980148
1033650,0.572911156727307,0.21702761480840835,-46.48734877722704,6.204105245313095
1033651,0.5667924600265389,0.18734642273394284,-46.72851950099718,6.351011502667225
1033652,0.5796138477042967,0.13972006921073332,-46.84947410906391,6.4372441739507344
1033653,0.6101868487773416,0.07525819983417288,-46.850141257089845,6.4612546672479
1033654,0.6565389921439987,-0.004100028177063408,-46.734892451730175,6.423690936887378
1033655,0.7159869964260397,-0.09567230342505675,-46.51240535046194,6.327373425522396
1033656,0.7852452363051632,-0.1961603280596368,-46.19535395365351,6.177186237997234
1033657,0.8605643954263406,-0.301811222181903,-45.799937588167076,5.979887914296798
1033658,0.9378944097140604,-0.4086053250620982,-45.34526280673474,5.743847057389639
1033659,1.0130637704930874,-0.5124599003749242,-44.852602002195155,5.478713369008293
1033660,1.081966556248352,-0.6094385053733736,-44.34456009290759,5.195038051852532
1033661,1.1407489593164546,-0.6959551018411606,-43.84417984867071,4.903857862150245
1033662,1.1859858734697795,-0.7689612081817341,-43.37402230216408,4.616259340283741
1033663,1.214839054479772,-0.8261066210610413,-42.95526228619236,4.3429422707138166
1033664,1.225189275947106,-0.8658646519734674,-42.60683785030305,4.093801378049439
1033665,1.2157357644672067,-0.8876146033160348,-42.344685437654064,3.8775411650473433
1033666,1.1860584928774296,-0.8916772768114698,-42.18109727779174,3.7013422614644353
1033667,1.1366398603820047,-0.8793013159356217,-42.124229474504055,3.5705937779156356
1033668,1.0688445748233462,-0.852600055089747,-42.17778107626508,3.4887022699232233
1033669,0.9848584418229722,-0.8144422613283167,-42.340859594987315,3.45698551218908
1033670,0.8875894654301317,-0.768302521010878,-42.608038920040975,3.4746557565667398
1033671,0.7805354989396303,-0.7180787243616495,-42.969606230341206,3.5388919595681068
1033672,0.6676247355750411,-0.6678855441136118,-43.41199009908209,3.6449984156913424
1033673,0.5530367042227131,-0.6218351093207135,-43.91834996177766,3.7866423386612373
1033674,0.4410121932054244,-0.5838161939658223,-44.46930014535107,3.9561581843893663
1033675,0.3356614735881152,-0.5572835004920909,-45.043738253181814,4.144905953916769
1033676,0.240779574578876,-0.5450678293523203,-45.61973835753365,4.34366556533262
1033677,0.1596770770784075,-0.5492169590147489,-46.175473542938626,4.543051242484136
1033678,0.09503504607239581,-0.570876312086044,-46.69012241900264,4.733924843614861
1033679,0.04879029158774028,-0.6102150046717342,-47.144722750948056,4.907790993336781
1033680,0.022056349321461367,-0.666401449964972,-47.52293465723946,5.0571568063180115
1033681,0.015083534126735932,-0.737630311782614,-47.811679125188824,5.1758389356143955
1033682,0.027259859824933015,-0.8211991809110047,-48.001625478684645,5.259205914193007
1033683,0.05715227388177536,-0.9136315395342134,-48.0875068659849,5.304344574307556
1033684,0.10258559977180509,-1.0108396367586487,-48.068256483066904,5.310147100629097
1033685,0.16075563466190743,-1.108319717067569,-47.946956177269904,5.277313172820725
1033686,0.22837024336631292,-1.2013694120980434,-47.730605170758906,5.208270066428945
1033687,0.30181119272811313,-1.2853163283792515,-47.429725440817606,5.107017581292501
1033688,0.37730947159307127,-1.3557476186826272,-47.057821488778096,4.978904907685254
1033689,0.4511249763707603,-1.408728052709188,-46.63072277869157,4.830351145005491
1033690,0.5197221409276847,-1.4409964056106952,-46.16584582127329,4.668526926996884
1033691,0.5799330799574065,-1.4501305083010905,-45.68140709432747,4.501009885745558
1033692,0.6291008311566753,-1.4346732800024222,-45.19562492227764,4.335431457405847
1033693,0.6651959146136954,-1.394213547130958,-44.72595037534155,4.17913327496505
1033694,0.6869011977250421,-1.3294177611015894,-44.288358378116364,4.0388474354180675
1033695,0.6936611318233149,-1.2420115824502231,-43.896731963628,3.920415439818335
1033696,0.6856939451831459,-1.1347123165075268,-43.562364590990256,3.828557989059053
1033697,0.6639664076541795,-1.0111156076015897,-43.2935980987213,3.7667038145382183
1033698,0.6301331908473503,-0.8755418929156445,-43.09560868843136,3.736883630049537
1033699,0.5864439746056346,-0.7328502088362675,-42.97034614651443,3.7396923914416753
1033700,0.5356234827162435,-0.5882283172976354,-42.91662088701829,3.7743180240098146
1033701,0.4807304903167358,-0.44696845797799173,-42.93032834239557,3.8386325089683786
1033702,0.4250029253962477,-0.3142396612951739,-43.00479380489591,3.9293382031334168
1033703,0.37169656077552526,-0.19486671371497155,-43.13121515412789,4.042160078210308
1033704,0.3239250367183304,-0.09312558629432802,-43.29917804883983,4.172072480452044
1033705,0.2845091690860125,-0.012564458101755521,-43.4972133626217,4.313547536686386
1033706,0.2558421160860958,0.04414218539472698,-43.7133688317387,4.460812801879364
1033707,0.23977697453791535,0.07530033197685272,-43.93576438016297,4.608104242473784
1033708,0.23754121750970253,0.0802602084708176,-44.153106743714304,4.749903644883301
1033709,0.24968219299707312,0.05943482818807635,-44.35514011192624,4.88115033723667
1033710,0.27604560406659834,0.014273369977503723,-44.53301416598112,4.997417828182484
1033711,0.3157872578308311,-0.0528089256402961,-44.679557102435126,5.095049859164387
1033712,0.3674170526943591,-0.1385397222290484,-44.7894474596452,5.1712522770096845
1033713,0.4288728298884354,-0.23893291234604858,-44.85928420417684,5.224140242063966
1033714,0.49762004789251024,-0.3494588801248949,-44.88755779674235,5.252740945353059
1033715,0.5707723837932761,-0.46523464265350895,-44.87453393970591,5.256956311720076
1033716,0.6452274329923348,-0.581224888205318,-44.82206387843711,5.237491908053927
1033717,0.7178104477688757,-0.6924454371535879,-44.73333925971921,5.1957587952094535
1033718,0.785420157331458,-0.7941611391860859,-44.61260776440989,5.133754857264892
1033719,0.8451697063531245,-0.8820701034705907,-44.46487187186449,5.053935541344891
1033720,0.8945163677289442,-0.9524673279882679,-44.29559079452976,4.95908259578591
1033721,0.9313745476490726,-1.002381276998372,-44.11039950018068,4.852176390087077
1033722,0.9542070631253483,-1.029679250597305,-43.914862469160035,4.736279851913146
1033723,0.9620913948412116,-1.0331380306135132,-43.71427329360745,4.61443922220527
1033724,0.95475809943326,-1.012477905161057,-43.51350446815601,4.489603144392562
1033725,0.9326002970232844,-0.9683598533507477,-43.31691236003599,4.364563250731213
1033726,0.896654309963358,-0.9023467763050281,-43.12829609274329,4.241916181392632
1033727,0.8485530290115993,-0.8168317180136002,-42.95090310030674,4.124044107525423
1033728,0.7904542398452121,-0.7149361037433669,-42.787472493920916,4.013110550149422
1033729,0.7249475545459071,-0.600382777946372,-42.64030657592175,3.9110680251248264
1033730,0.6549440466972032,-0.4773490068910548,-42.51135675242422,3.8196723318725168
1033731,0.5835541229639195,-0.3503057609040447,-42.402309997758145,3.740497874308884
1033732,0.5139582072798266,-0.22384888081116042,-42.3146627170809,3.6749486932920146
1033733,0.44927600886227365,-0.102528388367832,-42.24977369200661,3.62426281593865
1033734,0.39243990839952725,0.009317550952266707,-42.20888220369884,3.589503506159928
1033735,0.3460772566051588,0.1077186199958723,-42.19309053109519,3.571538130334836
1033736,0.31240579214163056,0.18921345443387116,-42.20330772401344,3.5710033604672615
1033737,0.2931464684758182,0.25097066985658106,-42.240156099886924,3.5882576143364755
1033738,0.28945668468625513,0.2908862646023702,-42.3038467289877,3.6233237221926706
1033739,0.30188586226367464,0.30765483526187,-42.394034414483706,3.675826231785154
1033740,0.33035425341534397,0.3008123645640956,-42.5096632287864,3.744928358439704
1033741,0.3741561121734887,0.27074926481254813,-42.648818155591954,3.8292754158221562
1033742,0.43198564044841864,0.21869436079118654,-42.80859935914524,3.9269512131968107
1033743,0.5019848264396087,0.14666987346488888,-42.98503271964523,4.035454058870667
1033744,0.5818106926597416,0.05741946853443085,-43.173032042729815,4.151697882335247
1033745,0.6687190933733034,-0.04568794296086413,-43.36642548083598,4.272044199446598
1033746,0.75966179828529,-0.15877569662037236,-43.558053541981856,4.3923676610700975
1033747,0.8513931314444197,-0.2775940988023579,-43.739944050072296,4.508157066157163
1033748,0.9405820605759945,-0.39766788712306805,-43.90356410576026,4.61465156206386
1033749,1.0239259315669005,-0.5144513752486045,-44.04014226027471,4.707008165052838
1033750,1.0982620871863669,-0.6234868767309726,-44.14104995765549,4.780495840353879
1033751,1.1606733607583437,-0.720560200239489,-44.19822701259809,4.830707999299937
1033752,1.2085842772223985,-0.8018488612003346,-44.204632622993955,4.8537858316754905
1033753,1.2398449958487638,-0.8640573752066648,-44.15469664626155,4.846639958864451
1033754,1.2528002309354742,-0.9045351566322728,-44.04474660612404,4.807158907215077
1033755,1.2463418531773556,-0.9213731235321923,-43.873383226125256,4.734391861425412
1033756,1.219942896733286,-0.9134749889657467,-43.64178154864787,4.628695125028316
1033757,1.1736732213809673,-0.8806010671435748,-43.35389319326123,4.491830644713338
1033758,1.1081960292711972,-0.823382394957532,-43.01652949838141,4.327007175583413
1033759,1.0247455432435653,-0.7433042844867009,-42.63931236518638,4.1388573590836755
1033760,0.9250873565733041,-0.6426597727852289,-42.23448624970475,3.933347851076734
1033761,0.811462716782899,-0.52447443381547,-41.816586846423434,3.7176202618702874
1033762,0.686518656836223,-0.39240452017018557,-41.40197525577059,3.499766354602867
1033763,0.5532263099142344,-0.25061221024347247,-41.00825156866864,3.2885442346690397
1033764,0.4147902274667615,-0.1036219390257847,-40.653567309540165,3.093044280104608
1033765,0.27455143184680475,0.043836680027563975,-40.35586718896971,2.922319081003422
1033766,0.13588748739127704,0.18699386506190774,-40.13208893069897,2.7849910274177354
1033767,0.0021126438754856913,0.3212063210372416,-39.99736130562254,2.6888564307043272
1033768,-0.12361901625306157,0.44211953573672025,-39.96423777670977,2.6405044223518286
1033769,-0.23840417942652714,0.5458192345798923,-40.04200347564169,2.6449684883498117
1033770,-0.3396719829316181,0.6289663021311792,-40.23609341291045,2.7054297430493857
1033771,-0.4252540470546211,0.6889094691183087,-40.547654407926906,2.822987622435948
1033772,-0.4934414076877977,0.7237722378216958,-40.973280926546266,2.9965136842423052
1033773,-0.5430261297724799,0.732509797872015,-41.50494029184274,3.222596627404284
1033774,-0.5733264198410098,0.714934057672227,-42.13010123220573,3.4955862461114577
1033775,-0.5841949064048569,0.6717058507131102,-42.83206882714846,3.8077389046645633
1033776,-0.5760101329483209,0.6042950113717456,-43.59051646293861,4.1494613098801025
1033777,-0.5496513794841762,0.5149097645679468,-44.38219606656054,4.509644123241509
1033778,-0.5064584185464845,0.40639897505015193,-45.18180244292357,4.876074806566227
1033779,-0.4481774377693186,0.2821316125669208,-45.962955132718115,5.235912872940461
1033780,-0.37689540218342615,0.14585819822876825,-46.69925463321857,5.5762064528619515
1033781,-0.2949652910783846,0.0015609086423402307,-47.36536818527558,5.884429242897513
1033782,-0.20492505376002984,-0.14670114944982493,-47.938095899134915,6.149013405516871
1033783,-0.10941355573525287,-0.2949449733443823,-48.39736516022859,6.3598522378370115
1033784,-0.011085873042719189,-0.4394084336961184,-48.72711067176228,6.508751599679062
1033785,0.08746872978412497,-0.5766807370568218,-48.91599224236877,6.589805372593136
1033786,0.18380273305814646,-0.7038126599733945,-48.95791873445462,6.599677851975523
1033787,0.2756784292588457,-0.8184028144858791,-48.85234814801089,6.5377772177157825
1033788,0.36112552538105386,-0.9186564790499594,-48.604348237095536,6.4063104370848665
1033789,0.438486665221934,-1.0034151824310487,-48.22441163743541,6.210215183555183
1033790,0.5064495879595393,-1.0721566224586843,-47.728029946053326,5.9569693390987375
1033791,0.5640654391085684,-1.124966273935977,-47.13504594073739,5.656285824122368
1033792,0.6107531856361759,-1.162482948654599,-46.46881068974109,5.319705200320806
1033793,0.6462907625098149,-1.1858221168708194,-45.755182789507614,4.96010291538196
1033794,0.6707937439476026,-1.1964814588076382,-45.02141834256354,4.591135265022036
1033795,0.6846834276939117,-1.196234468927123,-44.29499814449347,4.226647104807034
1033796,0.688646667498597,-1.1870182524703892,-43.60244949987458,3.880069478913215
1033797,0.6835887815799918,-1.1708212744860105,-42.96821720501344,3.563836040548765
1033798,0.6705829206346082,-1.1495773087619299,-42.41363530328086,3.2888443166704704
1033799,0.6508178284720226,-1.1250710609839742,-41.9560489383572,3.0639886210022698
1033800,0.6255466360736512,-1.0988600840862788,-41.608125247601045,2.895785598444043
1033801,0.5960387673765949,-1.0722165360859333,-41.377388235982394,2.7881121520767875
1033802,0.5635369801681392,-1.0460915461345193,-41.26599446203774,2.742065940152995
1033803,0.529220807886671,-1.0211028196059042,-41.270761405224896,2.755956843652734
1033804,0.49417790478721907,-0.9975456236736172,-41.383444946250535,2.8254296366858886
1033805,0.4593832748495427,-0.9754247572185034,-41.5912508740405,2.9437114095748953
1033806,0.42568680773201795,-0.9545052142865378,-41.87755065593031,3.10197051073795
1033807,0.39380874907625013,-0.9343774948959602,-42.22276906925673,3.2897712556482426
1033808,0.3643417763098512,-0.9145319058404098,-42.60539772201739,3.495601512063135
1033809,0.33775882567448107,-0.8944373743839595,-43.003082992930864,3.7074470111370035
1033810,0.31442516197290205,-0.8736187735760942,-43.39373495071312,3.913384274410056
1033811,0.29461287445431494,-0.8517273788864396,-43.75660166346222,4.102162889847678
1033812,0.27851605307166327,-0.8285994369152879,-44.073259052905755,4.263749441871473
1033813,0.2662652642791562,-0.8042984482014314,-44.328466131999754,4.389806020687155
1033814,0.2579395299163965,-0.7791383457259556,-44.51084685203224,4.474080557458176
1033815,0.2535748636680983,-0.7536852271470281,-44.61336605511162,4.5126897642775665
1033816,0.25316885191779376,-0.7287377211782761,-44.63357906096503,4.504282140657138
1033817,0.25668016944606203,-0.7052857566367166,-44.5736468536728,4.450073314306606
1033818,0.2640237968450035,-0.68445088959014,-44.44011725078579,4.353752821376359
1033819,0.2750622586200656,-0.66741131666891,-44.24348815936513,4.221267785313919
1033820,0.28959390837965326,-0.6553163356000453,-43.99757716504509,4.060495145168706
1033821,0.30733931516741664,-0.6491954427831937,-43.71873343303121,3.8808200755956537
1033822,0.32792781776526997,-0.6498683271362855,-43.42493344208809,3.692642089545757
1033823,0.3508854423687799,-0.6578612802593766,-43.13480596370346,3.5068324515551397
1033824,0.3756264918088545,-0.6733367746839616,-42.86664034243231,3.334172683651204
1033825,0.4014501397035914,-0.6960405810660245,-42.63742639910707,3.1848009319908748
1033826,0.42754377716574804,-0.7252716164045577,-42.46197375764789,3.067693391859574
1033827,0.4529940320369591,-0.7598773038384511,-42.352154880796085,2.990206675189241
1033828,0.4768060282540641,-0.7982763475341182,-42.31630884271863,2.9577038354041907
1033829,0.4979314185251614,-0.8385092420606368,-42.35883315004083,2.9732813409198218
1033830,0.5153045680233719,-0.8783151547910026,-42.479981195713,3.037609799264099
1033831,0.5278855137012433,-0.9152317938093456,-42.67587232837967,3.1488948761825086
1033832,0.5347084671125673,-0.9467143096075429,-42.938713022335,3.302960534593994
1033833,0.5349337833783679,-0.9702673114567989,-43.2572114488912,3.4934477353080737
1033834,0.527900394945919,-0.9835826395095518,-43.61716389235021,3.712118618879598
1033835,0.5131760737828273,-0.9846763567749365,-44.00218112819069,3.949250435736934
1033836,0.49060270700968683,-0.9720170793215394,-44.3945146563397,4.194098357400165
1033837,0.46033299272890366,-0.9446376652949192,-44.775940473338025,4.435403837650733
1033838,0.42285624736029964,-0.9022238619126156,-45.128655495755574,4.661923733766197
1033839,0.37901071747003573,-0.8451743251566878,-45.4361427980005,4.862954752088203
1033840,0.3299802862158171,-0.774626579506392,-45.68396128810279,5.028826759423371
1033841,0.2772745036747134,-0.6924466291554604,-45.86042361960374,5.15134256285215
1033842,0.2226916581973856,-0.6011814089719729,-45.957130885139414,5.224144096376299
1033843,0.16826501681976333,-0.5039744969074694,-45.969339185208014,5.24298761968713
1033844,0.11619389169408324,-0.40444783282075564,-45.89614594480079,5.205918116075182
1033845,0.06876136060718592,-0.3065547496916804,-45.74048915481901,5.113335314007108
1033846,0.028242214034785305,-0.21441028128216746,-45.50896332503812,4.9679506543578995
1033847,-0.0031952882360252164,-0.13210673219257552,-45.21146602385479,4.774639389266965
1033848,-0.0235895520660331,-0.06352336425161759,-44.860695709741734,4.54019756043165
1033849,-0.03128317373077635,-0.012138851244388878,-44.471529646750085,4.273017528238652
1033850,-0.025012409184787088,0.019142921878504447,-44.06031269191948,3.98269847376746
1033851,-0.003984341305512298,0.028145419720577023,-43.64409614516321,3.6796128859518795
1033852,0.032062693955478935,0.013542265395653197,-43.23986243030419,3.374449935228241
1033853,0.08281910137507911,-0.025056803726538932,-42.86377435261138,3.077757926808929
1033854,0.1473876951769238,-0.0870619928662705,-42.530481226574366,2.799505887322701
1033855,0.22429270098347046,-0.17090452710545806,-42.25251560747812,2.5486854590063417
1033856,0.31151481427847516,-0.274083608063611,-42.03980616983354,2.332970389749117
1033857,0.4065520430579723,-0.3932582030637528,-41.89932218452227,2.1584448261247573
1033858,0.5065044544740053,-0.5243796831563825,-41.83486408803992,2.0294121687337734
1033859,0.6081795094945659,-0.6628594407182904,-41.847006052402705,1.9482908303352537
1033860,0.7082143996256978,-0.8037644666665912,-41.933182327082264,1.9155952297911947
1033861,0.8032100169382191,-0.9420313362419582,-42.08790989708928,1.9300004383976832
1033862,0.8898706380971014,-1.072688322939293,-42.303134482482406,1.988485628449995
1033863,0.9651428901318785,-1.191074935409124,-42.56867201556832,2.0865421624275617
1033864,1.0263476738781665,-1.2930483651976978,-42.87272413844277,2.218435433474207
1033865,1.0712988741823513,-1.3751665613890285,-43.20244099343213,2.377505848308484
1033866,1.0984023914472685,-1.434838239367014,-43.54450036198656,2.5564916090341248
1033867,1.1067307683154504,-1.470432778140899,-43.88567764689806,2.7478578722269567
1033868,1.0960693651498474,-1.4813443103966366,-44.213380168688694,2.944116600469265
1033869,1.0669311386346176,-1.4680062236743365,-44.5161233351744,3.1381226611444517
1033870,1.0205389914597496,-1.4318555023344142,-44.78392911952478,3.3233333974647956
1033871,0.9587754907154437,-1.3752484079259708,-45.00863608617584,3.494023323087538
1033872,0.8841025823338269,-1.3013318589323064,-45.184109797876076,3.645446073047969
1033873,0.7994541271765142,-1.2138763943851536,-45.30635171675904,3.7739403072138136
1033874,0.7081062334145882,-1.1170799149276176,-45.37350908014813,3.876978895892075
1033875,0.6135315591030219,-1.0153516223373893,-45.38579223086917,3.9531640772210674
1033876,0.5192442651130769,-0.9130876247827828,-45.3453106379012,4.002172950875067
1033877,0.4286434276956437,-0.8144497540663179,-45.25584079682479,4.024660579718749
1033878,0.34486217281516857,-0.7231590956914005,-45.12254345993789,4.022129437700076
1033879,0.2706303991109016,-0.6423151638780963,-44.95164696670359,3.9967749008316034
1033880,0.2081575123303649,-0.574250050708435,-44.75011671728628,3.951317572190606
1033881,0.1590417512015018,-0.5204257914160996,-44.52532408550132,3.888831167680194
1033882,0.12421016897212107,-0.4813799454616757,-44.28473411624967,3.812576603513293
1033883,0.10389282285811453,-0.4567234626064737,-44.03562257888305,3.7258492348686763
1033884,0.0976322603924331,-0.44518984665072087,-43.784834178377935,3.6318465579955816
1033885,0.10432790932219191,-0.44473414459199123,-43.53858815817838,3.533560460146459
1033886,0.12231334280679249,-0.45267627367040947,-43.302337207266085,3.4336977520519048
1033887,0.14946242014131184,-0.46588137624756987,-43.08067662299649,3.3346278218616843
1033888,0.18331836659980869,-0.4809670485454515,-42.87730542014174,3.2383586690993256
1033889,0.2212394017232178,-0.4945268424284068,-42.695032950051214,3.1465372835769005
1033890,0.2605530483018712,-0.5033573895224661,-42.53582227751823,3.0604698370607517
1033891,0.29871093312789515,-0.5046768249921215,-42.40086518712618,2.98115835213235
1033892,0.3334354800424733,-0.49632189747252115,-42.290678989714515,2.9093478518053972
1033893,0.36285089237077994,-0.47691246057198655,-42.205213368862594,2.8455774121917274
1033894,0.38559083475620654,-0.4459738085985483,-42.14396146200154,2.790231138732215
1033895,0.40087706734377854,-0.4040088335889135,-42.106066718553876,2.743584432347942
1033896,0.40856434177714657,-0.3525148722319648,-42.09041756775285,2.705840654874056
1033897,0.40914869798021036,-0.29394306979078716,-42.09572615931041,2.6771562886616995
1033898,0.4037390117938515,-0.23160120177346064,-42.1205900201989,2.6576546243229546
1033899,0.3939923690095218,-0.16950359998631934,-42.16353341548795,2.647426010174485
1033900,0.38201679942792305,-0.11217491176210152,-42.223028532843884,2.6465158491784257
1033901,0.37024628004870125,-0.06441683045100556,-42.29750244766016,2.6549044656815517
1033902,0.36129456165465185,-0.031049817637972536,-42.38532980708682,2.6724797171051953
1033903,0.35779607848318745,-0.016642722728476268,-42.48481725533246,2.699006911677715
1033904,0.36224204014606604,-0.02524401797165639,-42.59418445749091,2.7340995589936132
1033905,0.37682087888108967,-0.06012924421226512,-42.71154675160101,2.7771946761181137
1033906,0.4032723335718091,-0.12357850227245308,-42.834901419251125,2.8275350756343762
1033907,0.44276274290625206,-0.21669605653493015,-42.96212572469675,2.8841628896055886
1033908,0.4957892123302032,-0.3392830611662588,-43.090986086897615,2.9459248530242648
1033909,0.5621183334391467,-0.4897712794713628,-43.219160252658995,3.0114901307704427
1033910,0.6407636021716305,-0.6652234010616107,-43.3442734589929,3.0793812095232735
1033911,0.7300027708553798,-0.8614008180476549,-43.463947834545785,3.148016122932314
1033912,0.8274355569691755,-1.0728984978802194,-43.575860764668896,3.2157592883866117
1033913,0.9300794022756294,-1.293341416328387,-43.67781022223992,3.280978723970593
1033914,1.0344982107138703,-1.515634354846331,-43.7677846933916,3.3421064060547288
1033915,1.1369583868049526,-1.7322542912317525,-43.84402992185843,3.397697006072592
1033916,1.233604333977993,-1.9355723977406565,-43.905109940628996,3.4464815019618653
1033917,1.320644215689352,-2.1181898306179106,-43.949958136983334,3.487412551952451
1033918,1.3945368018221713,-2.2732721762369787,-43.977914336736156,3.5196984247054095
1033919,1.4521696939854192,-2.3948662816031643,-43.988745331940606,3.542823261626665
1033920,1.4910194519103954,-2.478183892495783,-43.98264734350522,3.556552492627188
1033921,1.5092853958135661,-2.519837793391488,-43.96023035383548,3.560923524003016
1033922,1.5059901117515329,-2.518019391781935,-43.92248330250475,3.5562217424083205
1033923,1.4810408882634418,-2.472607616241358,-43.870724637014554,3.542944501053147
1033924,1.4352489149892294,-2.385203640048534,-43.80654078862373,3.5217564216579684
1033925,1.3703049715527906,-2.259088909647508,-43.73171544337499,3.4934383529504474
1033926,1.2887124358756923,-2.0991075722257437,-43.64815529926378,3.4588345535379497
1033927,1.193681276812869,-1.9114786159806718,-43.557816259993395,3.418802180495478
1033928,1.0889874075545232,-1.7035451243188688,-43.46263640617524,3.3741675832233167
1033929,0.9788049558433117,-1.4834725685280807,-43.36447874559209,3.3256920829725845
1033930,0.867519661044577,-1.2599097507504886,-43.26508780558592,3.2740511163248702
1033931,0.7595322244083389,-1.0416275140642122,-43.166062679771315,3.2198273452281208
1033932,0.6590619881870285,-0.8371523032098768,-43.068848735088366,3.1635200471139164
1033933,0.569960144571135,-0.6544109440181802,-42.97474566670755,3.105568572936763
1033934,0.49554158392325975,-0.50040297435311,-42.88493257044891,3.0463891345412963
1033935,0.43844353780804407,-0.38091545395219534,-42.80050747002334,2.9864222911238847
1033936,0.40051775854422833,-0.3002924880580384,-42.72253528206411,2.9261858770402247
1033937,0.38276083649251375,-0.2612701174887154,-42.652101867996564,2.866330111506968
1033938,0.38528601105608334,-0.26488321577073926,-42.590365436353665,2.8076880438818677
1033939,0.40733661024851625,-0.31044758692218616,-42.53860396070076,2.7513181335129016
1033940,0.4473402706938261,-0.3956171872368092,-42.49824766806097,2.6985312562637183
1033941,0.5030002800258768,-0.5165128782956488,-42.47089450519819,2.6508991929761634
1033942,0.5714191519027224,-0.6679156992496353,-42.45830418880881,2.610241449790374
1033943,0.6492472384872647,-0.8435144283378495,-42.46236776257477,2.5785873030024
1033944,0.7328485937051659,-1.0361948860002457,-42.48505133526392,2.558113163835384
1033945,0.8184756539215321,-1.2383573880526106,-42.52831266965875,2.551055266359857
1033946,0.9024439711616052,-1.442246838083226,-42.59399488371621,2.5596010831372906
1033947,0.9812978633313656,-1.6402797405259633,-42.68370259291659,2.5857649079599505
1033948,1.0519593474621143,-1.82535339274434,-42.79866303466221,2.6312517481047317
1033949,1.1118534254079857,-1.9911238682531092,-42.93958196381848,2.697317977071297
1033950,1.159003818512819,-2.1322398811287058,-43.1065024265754,2.784636734127636
1033951,1.1920957859847179,-2.2445239827873884,-43.29867633277234,2.8931767186547157
1033952,1.2105034517573938,-2.3250940780020035,-43.51445614212399,3.0221020610255427
1033953,1.2142817530735477,-2.372421533042795,-43.75121860521312,3.169702679188098
1033954,1.2041245159464151,-2.3863254304816035,-44.00532768727244,3.3333615928543785
1033955,1.181291967662713,-2.3679061064837614,-44.27214199870387,3.5095636532439327
1033956,1.1475129137060855,-2.3194233037103373,-44.5460751713376,3.6939512085991533
1033957,1.1048672811657476,-2.2441272649302455,-44.82070625883619,3.8814253373082783
1033958,1.0556558095296122,-2.1460527867850194,-45.08894622594802,4.066294181757631
1033959,1.0022646647705595,-2.029788146314683,-45.34325219059905,4.242462490333799
1033960,0.947032064966242,-1.900231649714474,-45.57588659972949,4.403657093977552
1033961,0.8921240612186173,-1.7623478957789869,-45.779211373966675,4.543679632625724
1033962,0.8394257955174582,-1.6209367115988902,-45.94600573764219,4.65667570614314
1033963,0.7904538246786966,-1.4804257846454578,-46.069795485227274,4.737408975373709
1033964,0.7462930072331743,-1.3446959557617812,-46.145177018165384,4.781526238488257
1033965,0.7075611786436802,-1.2169472700876183,-46.16812161824012,4.785800707769346
1033966,0.6744020185316231,-1.0996101596180274,-46.13624580177358,4.748341451609566
1033967,0.6465061538965203,-0.9943045811298271,-46.049027883569494,4.6687547107163745
1033968,0.6231582244348315,-0.901846854932614,-45.907961204779234,4.548248277837748
1033969,0.603306065037345,-0.8223009252536102,-45.71663113335162,4.389671076788586
1033970,0.5856482211430603,-0.7550692627616329,-45.4807069354966,4.197481837099111
1033971,0.5687340050674764,-0.6990163565990309,-45.207842811191256,3.977644840187973
1033972,0.5510702262569596,-0.6526159730065869,-44.907488136683256,3.737454390870439
1033973,0.5312282105985747,-0.6141123000278667,-44.59060950570092,3.485292625818816
1033974,0.5079453900589144,-0.5816853210337815,-44.26933118553406,3.230328272762094
1033975,0.480215583472778,-0.5536100283318357,-43.95650633118448,2.9821683199053735
1033976,0.44736315001134946,-0.5284000043017286,-43.66523364551376,2.7504758034106165
1033977,0.4090970268406591,-0.5049273487877979,-43.408338478245774,2.5445698833106216
1033978,0.3655417431464358,-0.4825121793417731,-43.19783775567501,2.3730247830601594
1033979,0.3172441507649545,-0.46097701806215235,-43.04441470285929,2.2432872237509343
1033980,0.2651553724210345,-0.4406634673831052,-42.956925074357976,2.1613287365685143
1033981,0.210589111493381,-0.4224104002942447,-42.94195808539485,2.1313501675591904
1033982,0.1551589235651133,-0.4074961287380467,-43.00347354742478,2.1555522782310566
1033983,0.10069755815604342,-0.3975480504371585,-43.14253457036976,2.233985343893292
1033984,0.04916302962450476,-0.39442580948794825,-43.35715354318969,2.3644873755438325
1033985,0.002536219709761389,-0.4000848354334163,-43.64225923922527,2.5427145209847155
1033986,-0.03728472452134377,-0.41642900390003745,-43.98979414128623,2.7622660911711736
1033987,-0.06858720772796385,-0.44516114977674115,-44.38894094260685,3.0149002195706895
1033988,-0.08993900734939395,-0.4876406272933781,-44.82647390645599,3.2908336852929474
1033989,-0.10027061596803093,-0.5447560160383756,-45.28722330555448,3.5791132805935737
1033990,-0.0989401599970213,-0.6168211890117902,-45.7546379068298,3.868046195544032
1033991,-0.08577783451508604,-0.7035011821261006,-46.21142167686754,4.145669146258972
1033992,-0.061107185039382776,-0.8037726380228718,-46.64022079021845,4.400238222834332
1033993,-0.025742409446379122,-0.9159216274798786,-47.024333395868965,4.620718682830037
1033994,0.019039014788044515,-1.0375799490298572,-47.348409502258974,4.797252574446233
1033995,0.07154635817390283,-1.1657982760439998,-47.599109805629496,4.921582704497321
1033996,0.12974708655992528,-1.2971537222067244,-47.765695684767195,4.987415761771761
1033997,0.1913558519357595,-1.4278858464208324,-47.84052071280896,4.990706664051407
1033998,0.2539370111850812,-1.5540552624917545,-47.819400333061175,4.929851147268362
1033999,0.315016161794588,-1.6717165921207227,-47.70183999048415,4.805776887761756
1034000,0.3721947970130148,-1.7770966869106597,-47.49111003368847,4.621929027008307
1034001,0.4232638502733887,-1.866770155436389,-47.19415845082724,4.384148225920486
1034002,0.4663096687088928,-1.937822052124069,-46.82136444392512,4.100447466652231
1034003,0.4998078339102571,-1.987990100753083,-46.386138667988355,3.7806944714428066
1034004,0.5227005128475802,-2.0157789138675217,-45.90438715404623,3.436214662118952
1034005,0.5344533749105357,-2.020540204643127,-45.39385879826942,3.079330384037924
1034006,0.5350890253385412,-2.0025141776371296,-44.873405638291,2.7228568018930783
1034007,0.525195361395301,-1.9628306272931415,-44.36218729928475,2.3795763276768476
1034008,0.5059086325069669,-1.9034689772875217,-43.87885273479326,2.0617130873490885
1034009,0.4788704709116518,-1.8271781554610367,-43.440739839561225,1.7804323124229888
1034010,0.44616169288209,-1.7373607652040217,-43.06312509096772,1.5453846604060648
1034011,0.41021514141408333,-1.63792705636132,-42.75856242878505,1.3643173916347675
1034012,0.3737110576072219,-1.5331246526468811,-42.53633887068233,1.2427673975598998
1034013,0.3394596317367072,-1.4273526878717444,-42.402074315655774,1.1838504562288683
1034014,0.31027593919829916,-1.324969290032111,-42.357485475216485,1.1881556240730866
1034015,0.28885225158701616,-1.230100770278575,-42.40032637380884,1.2537489703545912
1034016,0.27763399644419506,-1.1464619561620162,-42.524508219178585,1.376285950686696
1034017,0.27870409989828854,-1.0771958532090185,-42.72039531401994,1.5492267193891531
1034018,0.2936817467396586,-1.024740203798531,-42.975264558891354,1.7641450880038434
1034019,0.32363941715360905,-0.9907265488325553,-43.27390666464249,2.0111152847903004
1034020,0.3690424701595758,-0.9759169052164754,-43.59934303480735,2.279160277982271
1034021,0.42971400294097173,-0.9801796263973765,-43.93362371514226,2.5567401438761803
1034022,0.504826789429301,-1.002506366361028,-44.258670125169616,2.832258657053077
1034023,0.592922980907029,-1.0410679139232875,-44.55712225667048,3.094565167669819
1034024,0.6919608942153768,-1.093306219925421,-44.813150794226694,3.33342970939943
1034025,0.7993872945735782,-1.1560577370122935,-45.01319389723559,3.5399691727493936
1034026,0.9122322527415931,-1.2257022729246314,-45.14658357888692,3.707006076785335
1034027,1.0272228197197992,-1.2983296236036093,-45.206034015025224,3.829346100430377
1034028,1.140910872493378,-1.3699164229801795,-45.187964944886915,3.9039611370393366
1034029,1.249809423428577,-1.4365047258419659,-45.09264604953831,3.9300709505895415
1034030,1.3505325913439945,-1.4943743596932926,-44.92415471282462,3.9091217742010587
1034031,1.4399323932853332,-1.540201151479398,-44.69015076940935,3.8446645591521933
1034032,1.5152274322625428,-1.5711946933902161,-44.40147717018735,3.7421392095791703
1034033,1.57411805147786,-1.5852098522907574,-44.07160699869219,3.6085765024574723
1034034,1.6148824913464561,-1.5808272261872502,-43.71596637615763,3.4522341301693915
1034035,1.636450742320803,-1.5574006906021256,-43.351162393949004,3.2821829901415414
1034036,1.638452673070563,-1.5150706341378097,-42.99415730094958,3.107864876637711
1034037,1.6212389543309798,-1.4547436527796505,-42.66142899738936,2.9386430103917394
1034038,1.5858730714354363,-1.378040470545579,-42.36815914861375,2.7833663079784134
1034039,1.534095719187262,-1.2872160538716562,-42.12748777797919,2.649967046300149
1034040,1.468262457868785,-1.1850566037342054,-41.949873752386836,2.5451115390334
1034041,1.3912575437946204,-1.0747584184319399,-41.84258947356569,2.4739179223281944
1034042,1.306387282094224,-0.9597952397010745,-41.809375616665896,2.439753584127533
1034043,1.2172572121442644,-0.8437800732920141,-41.850273040098195,2.444120361551459
1034044,1.1276385763172136,-0.7303281042338462,-41.96163851506974,2.486630879861958
1034045,1.0413285608081813,-0.6229256454494368,-42.136342746192014,2.5650749288397474
1034046,0.9620100384012684,-0.5248110214737444,-42.36414135704912,2.675571360288075
1034047,0.8931166396155097,-0.43887120745982533,-42.63219774264508,2.8127954083837703
1034048,0.8377078219552083,-0.36755753823694404,-42.925731806120716,2.9702690400142213
1034049,0.7983586655673953,-0.31282255840892526,-43.22876228032664,3.14069930189553
1034050,0.7770682025657282,-0.2760786871656703,-43.52490398115514,3.3163463806726416
1034051,0.775189698421233,-0.2581788092896462,-43.798181437650406,3.489403611178934
1034052,0.7933848372468634,-0.2594173293765214,-44.0338187208438,3.6523707009601685
1034053,0.8316034885131913,-0.27955025155214447,-44.21896382196072,3.798401208094399
1034054,0.8890888885289124,-0.3178308290505097,-44.34331592637491,3.921609498034706
1034055,0.9644078254347843,-0.37305844856955817,-44.39962261597528,4.017322122394183
1034056,1.0555044328309158,-0.4436371607703158,-44.384025669501064,4.082264301863012
1034057,1.1597746875003685,-0.5276403848287977,-44.29623901615171,4.1146732586159676
1034058,1.2741592121193768,-0.6228792307044353,-44.1395535534773,4.114336275422425
1034059,1.395250511670705,-0.7269714115251679,-43.92066448682194,4.082550696297334
1034060,1.5194103087757602,-0.837408501232414,-43.64934015607037,4.022014743972062
1034061,1.6428932531842981,-0.951619939811944,-43.337945183845605,3.9366536607853053
1034062,1.7619722332942682,-1.0670324756062117,-43.00084386754612,3.8313925519555387
1034063,1.8730614445657296,-1.1811247324841962,-42.65371570109685,3.711889205721259
1034064,1.9728326921218677,-1.2914765046436727,-42.31281669294925,3.5842410831281266
1034065,2.0583215362574157,-1.3958128582081892,-41.99422213920318,3.4546814175822997
1034066,2.1270197201720067,-1.4920438774590692,-41.71308988687706,3.3292807757424687
1034067,2.176951420699521,-1.5783001814245627,-41.482977224096004,3.2136679966917403
1034068,2.2067307365068642,-1.6529648383915714,-41.315243153665484,3.1127830583271927
1034069,2.2155989406902297,-1.7147018158613994,-41.218563095115044,3.030673258583964
1034070,2.203441129383067,-1.7624815560615013,-41.198577539704914,2.9703419589564892
1034071,2.1707811539407427,-1.7956025364315755,-41.25768650563748,2.9336535187709445
1034072,2.1187559941383,-1.813709019474039,-41.39499533074917,2.9212971931541833
1034073,2.049070182488134,-1.8168033454898962,-41.6064131382281,2.9328103880072027
1034074,1.9639322739185068,-1.8052524179878346,-41.88489153759109,2.966655656261637
1034075,1.8659754014720664,-1.7797862632969765,-42.22079010944108,3.020346201729457
