timestamp,LAz_angle,LEl_angle,RAz_angle,REl_angle
1032673,0.21131644533124927,-0.27608895791559007,-34.38459497027088,0.6440657735647619
1032674,0.4790040894716867,-0.5781885451431208,-35.84365055803755,2.0224477318724894
1032675,0.3433685673501259,-0.4630959481341961,-37.887587865890964,3.852592032360917
1032676,-0.1994791015079045,-0.26425677008069215,-40.66278416708883,6.033009130141181
1032677,-0.29622807455700695,-0.04715684371581119,-40.9162455800124,6.367988133806648
1032678,-0.04820922439341757,-0.23655011442178875,-40.20212990667733,5.611896621779124
1032679,0.5158857830290344,-0.05775580483623344,-38.190288004582726,4.733312790198397
1032680,0.7330621332201872,-0.04499863854425712,-36.52536643127769,4.252956346298561
1032688,-0.7152384507742227,1.0385999094298768,-32.56293408041802,-0.0909292550468308
1032689,-0.35492307030824577,0.33751788096196833,-31.20163809758924,-0.7370295125392659
1032690,0.19224282318725727,-0.471820287589253,-28.422447106596337,-1.7943347105501743
1032691,0.5088261281889572,-0.6647647018337466,-25.45457640225959,-3.74907524795708
1032692,0.6534875808786182,-0.7954131627679999,-26.30737998591303,-3.503828237677226
1032693,0.019847980853569425,-0.10533342824123793,-28.824231046784007,-2.168902585590331
1032694,-0.4228190460762562,0.5528370423169235,-30.81476119281342,-0.8406704594071925
1032695,0.2515564744821859,0.26221521377601675,-33.19510383484703,0.9416473639230389
1032696,0.8605590863685393,-0.2516885081572582,-37.82333168209061,4.004754014413265
1032697,1.1513879651618026,-0.8665849465010069,-43.57946527220702,7.5533486269450805
1032698,1.2529347330854534,-0.9321197890635631,-44.52509793164336,8.277776765075942
1032699,1.2726700001156814,-0.9202638447034133,-44.84176968776774,8.163954019462835
1032700,1.4449878416647834,-1.3704760448817979,-40.91467789940452,5.43486509507693
1032701,1.3349159433331579,-1.504841507411129,-39.18982314954519,4.488582319246234
1032702,1.21591660911281,-1.026801491027527,-38.70384363594712,4.45950823302428
1032703,0.9611398298341101,-0.4192671810947104,-36.288515469458616,2.831511988432794
1032704,0.709074447814146,0.18344321737254177,-33.241160188405956,0.8191038908844348
1032705,0.08402193274764613,0.6870058124511615,-32.98503963401254,0.030938402410356503
1032706,-0.34581380651331983,1.1114714972341062,-31.81285634372307,-0.5729682815081105
1032707,-0.9951492750166153,1.7501630127528642,-31.14042068404524,-1.1124825540500751
1032708,-0.3206038383552823,1.294797087022289,-28.914998443734476,-2.1005007201029002
1032709,0.5657578806273023,0.17276718796392743,-28.307245199148383,-2.2098699336693244
1032710,0.9877252834459114,-0.4854664370741375,-31.798446272042383,-0.43806532655980845
1032711,0.5358044566918352,-0.39530235448410167,-37.053006525470664,2.1580184286258373
1032712,0.47370172274190736,-0.49831498473827196,-39.5030295188335,3.3538510920998306
1032713,1.0607685905077915,-0.555319435580941,-39.477948049813676,3.873891443273351
1032714,1.2691851694471552,-0.13577954005745596,-37.57742477401098,3.552786180871408
1032715,1.3581529270121564,-0.02411769774585082,-39.474007676438305,4.8560381902962035
1032716,1.7883549637072065,-0.5671786646205419,-41.63434375607085,6.2641006069006835
1032717,2.6274263225113828,-1.4937072884511053,-39.89993331499227,6.033753236803932
1032718,2.909040585414573,-1.6249752290686956,-37.02818823134203,5.1960423901418835
1032719,2.243792298595963,-0.9665400928013241,-36.556493809944186,5.164920466378135
1032720,0.7432660720999138,0.7273799849970146,-38.023199282638416,5.780317745535285
1032721,0.1240255765872007,1.1039743170822476,-38.87982360453407,6.48327552587034
1032722,-0.19959655743241456,1.2150625753702116,-37.94550745115794,5.859848688566672
1032723,-0.9900595994650985,2.3244588310594736,-35.75844343107747,3.6117341139743075
1032724,-1.4384664030698104,2.8960641715282236,-33.39456190007513,1.5662802729220857
1032725,-0.04480496006692647,1.277268415846038,-29.928220919233354,-0.33948978271746455
1032726,1.2060658303928449,-0.24623441523317524,-28.88491531834643,-0.5657352455527871
1032727,1.7102728104131302,-1.1889057538662655,-32.938013957521434,1.5461326670038034
1032728,1.2769908568501478,-1.1721655490327976,-37.748027532924425,3.552183707124641
1032729,1.1655973330599636,-0.9004136675075642,-40.35211229063043,4.771414109667603
1032730,0.8414097793439623,-0.08897522381721501,-36.907730357763285,2.798709575356952
1032731,1.1305285738433213,-0.41638512346412426,-31.40014660713132,-0.3762618434348042
1032732,1.5121407052720315,-1.033862097365045,-29.106538502624062,-1.5907985757530696
1032733,1.5577928172768907,-0.9452527213397843,-29.684073876299408,-0.7590019869367097
1032734,1.7042060733743938,-0.8077994020434289,-29.803971223152075,-0.2534865215575337
1032735,1.9781655593925507,-0.6264102930690569,-30.248589189902304,0.3610746350550471
1032736,2.2683234000846824,-0.5889505917195947,-32.5875736840153,1.890956548205395
1032737,2.2543824651739897,-0.36284608210030456,-35.232253574612514,3.8842563002808674
1032738,2.660111583660637,-0.3516609786365734,-35.86499151798671,4.7414425859897165
1032739,2.380541929986066,-0.23915305671857823,-38.21821868513689,6.392232145660273
1032740,2.418017269991765,-0.4049047053781578,-39.007179131812336,6.816654666977229
1032741,2.1513984499691787,-0.4166781791032008,-38.22756650187057,5.958463982195099
1032742,1.9731641048944084,-0.38337714804197276,-36.783642828777374,4.396954282373372
1032743,2.0051097827515605,-0.6271715929065067,-34.838840017873736,3.0053464207203433
1032744,1.7034382623767215,-0.47373841628768787,-32.67357901839114,1.8054031939436754
1032745,1.5045351476391033,0.07615181711048535,-29.90882759372107,0.5766203278662942
1032746,1.1547183438866568,0.6813693080691792,-28.371766584956276,-0.013040525879659981
1032747,0.8518184171546181,1.346634090393536,-27.790441221329274,-0.43507917044644273
1032748,0.39461889403389705,1.9697305444453832,-28.945856606093002,-0.4629268634243999
1032749,0.1718238929547624,1.8135061020498142,-30.135999556462593,-0.31860001577297226
1032750,0.34403408420564574,1.4996839955110772,-31.215786776188907,-0.04750269092164672
1032751,0.30611439374956717,1.559407891435285,-31.15723701114439,-0.011957191907640663
1032752,0.690762496451498,1.3297601806930288,-29.108362157002375,-0.6377033302633208
1032753,1.1273915121192886,1.209641354665564,-30.813123915758297,0.685865004767038
1032754,1.1989706703723186,0.8768383319691111,-33.34644271378329,2.4111734210237046
1032755,1.3894739074145264,0.29798780753526444,-36.05919530843039,4.027894714147806
1032756,1.3476697923422307,0.0056053956448067765,-34.9596390480192,3.502030186645243
1032757,1.1995220912926925,0.02693423237292336,-35.67011746395292,3.5964861321135686
1032758,0.5551883199557324,0.4922745278788625,-35.8927274402422,2.6976842959638816
1032759,-0.04074452337670209,0.9923004320544351,-35.759562808114424,1.869444744730572
1032760,0.10643955726072818,0.6519708678465577,-34.63079583183844,1.5082673716779027
1032761,0.571065877265255,0.14209092853070615,-33.48136858338057,1.6599658215081945
1032762,0.8465664560370669,-0.03964097487892104,-32.11851548069171,1.0716529400424406
1032763,1.1958366534256584,-0.02722941063188955,-30.67962111844372,0.7213262517825569
1032764,0.9391231068934758,0.4698985045918107,-32.014779067289055,1.8667031203885927
1032765,0.869453933509476,0.28549644468307633,-35.34491440072088,3.1766426915010015
1032766,0.9631614072000048,0.08222494528467905,-37.09647328455503,3.2186199054813187
1032767,0.5414244437840807,0.07003249029617109,-35.42745524540169,1.7944068837332452
1032768,0.05450214622260319,-0.029142988876401432,-33.001413498002876,-0.15815522706179763
1032769,0.2792317928774537,-1.024727613802952,-34.38785297098002,-0.0720608994615759
1032770,0.695967458582345,-1.3311542812546122,-36.288452806712485,0.745493418852675
1032771,0.7101731286433051,-1.1389202444304374,-35.226138572260425,0.0011318289407427073
1032772,0.6094164788800072,-0.7842380065619636,-32.70332794721526,-0.8761327458742016
1032773,0.49063514096496874,-0.4468859759294901,-33.402620483128885,-0.25969803885072906
1032774,0.84364917549442,-0.5649994207481086,-30.834644188283164,-1.0805380984302246
1032775,0.37631432170678636,-0.004277216373111514,-30.084093533264422,-1.3223097095806224
1032776,-0.5775747666855295,0.7869502459625437,-31.866260639057145,-0.7002968265742311
1032777,-1.0997728728201537,1.6912298269512576,-31.737152021724796,-1.1011127793699416
1032778,-1.273506957110385,2.247579348492991,-30.940473670200845,-1.8324049133707376
1032779,-0.9039552215912181,1.9371140252526402,-31.691771298723324,-1.7408254895972277
1032780,-0.1285657482666238,1.2964189487217936,-32.51916597840227,-1.1780492082398268
1032781,0.1228910508766603,0.8725353268630442,-31.999869624409257,-1.0832182860785906
1032782,0.3145633134736272,0.3332220516540474,-33.615301267092036,0.3110566245550217
1032783,0.04233627947860441,0.08878985859541899,-34.11126699709257,0.5084969084009572
1032784,-0.16283651992841897,0.0942403180401925,-33.99939429477581,0.4167288510443541
1032785,-0.710069629273562,0.32801123959325196,-34.50774604510934,0.10676378462449065
1032786,-0.7414590883147412,0.2668248577024315,-34.371400825261844,-0.3367127065284876
1032787,-0.5728624173044636,-0.14479800744925342,-33.7774964377013,-0.8707288189480096
1032788,-0.37611293726592976,-0.6711170765154293,-36.27995411807751,0.1476153183621136
1032789,-0.6007198778958127,-0.7795885797452229,-36.868894456597445,-0.05731596457735577
1032790,-0.4203081924038088,-1.3081337700177755,-38.13121796161522,0.5343436594457671
1032791,-0.3894163209713497,-1.421605916860699,-39.824513666190796,1.6548946864741083
1032792,0.19428416974938045,-1.7992253486838763,-39.919996761279435,2.5702907854520163
1032793,0.2721892928794887,-1.5433466209565267,-39.58594866122985,3.2265206579122605
1032794,-0.4295284659159506,-0.7096690496032352,-38.84660700571567,2.8491067408594972
1032795,-0.9541963346931652,-0.049592039664958065,-37.58993137801008,1.989050300890085
1032796,-1.0099210732760184,0.49395531792924885,-37.870480474839496,1.755554434741498
1032797,-1.0004975209271834,0.6608139172926712,-38.67439817169361,2.361486150516612
1032798,-0.634719190437977,0.6504699167162471,-39.99262915718373,2.987667102573141
1032799,-0.48127351568314225,0.9631904923148795,-42.483829803721164,4.593725118234943
1032800,-0.7424387501057481,1.3092275001113194,-40.7299507583939,3.929078140090496
1032801,-0.8221913752144019,1.2089715706913466,-36.197496056407545,1.867010358772859
1032802,-0.624214377203316,0.8681896515140579,-33.0153195498242,0.5424014329792044
1032803,-0.5448169197446759,0.5513670187083335,-32.74089159745017,0.49250611869047134
1032804,-0.04611729054136049,0.4435813139216407,-30.893629636490004,-0.8177931770342184
1032805,-0.2634206315204892,0.25046994118929433,-30.690654208432534,-1.959272866683932
1032806,-0.5348582366367509,-0.19080148070702307,-32.85780890890146,-1.6196160414601763
1032807,-0.6218303052695546,-0.4583736865981791,-34.120193936602845,-1.9486211925959651
1032808,-0.3254441027214625,-0.7950423028482874,-34.98043642158791,-1.5913918307769563
1032809,0.06015459439481674,-1.1189684033911362,-35.379793392020474,-1.0308008651918499
1032810,-0.13583504803648339,-1.1091285250615783,-36.42498110377437,-0.028240536596968013
1032811,0.0016919363243914631,-0.6256465664671396,-36.47643544179027,1.0709929558415752
1032812,0.02038537805140095,-0.0025492792162822298,-38.866862303520975,2.883036244807954
1032813,0.10623857860332464,0.1740765565843958,-36.77685038157961,2.253284247081865
1032814,0.023391622830217784,0.3953014039741447,-33.61513202277365,0.4591142106337429
1032815,0.32395292362741657,0.4735178195962817,-33.53715103123341,0.5666101728002104
1032816,0.46013572119613855,0.7114732380064197,-35.34176306995687,2.1159655614492294
1032817,0.9088296120079349,-0.1507047412906104,-39.71329806851554,4.741624562145262
1032818,0.8433649792285678,-0.34868776190137396,-41.14021377546214,5.673994691434018
1032819,0.6227927874331272,-0.038057750081406994,-39.536015755142216,4.966484153819692
1032820,0.5991797030334283,0.1426759912314992,-37.854410548563465,4.2629172465995
1032821,0.32666991780115495,0.5194199530055812,-36.95510085535625,3.774453122390696
1032822,0.021850009143804527,0.8931432251426941,-34.38102009310751,2.420834231185836
1032823,0.2438810846075512,0.6812899367378122,-32.31346171942732,1.5644097736185358
1032824,0.5894074242121405,0.4746305223809486,-32.36351702144202,1.4242087047068708
1032825,0.6711981373157414,0.8567247502026021,-29.917198134102364,0.08583098133476597
1032826,0.17309824027688592,1.4994530631677208,-27.996150041247347,-1.4798020033504145
1032827,-0.23266226516307142,1.784468511742034,-28.438700326174512,-2.068223623346057
1032828,-0.23602623220381247,1.130632989206788,-29.596928399167155,-2.2205378683684103
1032829,0.029093339022097098,0.19875800454883574,-31.15538579209897,-1.8360901061296317
1032830,0.5868023959124002,-0.2039968665944798,-30.99682124030005,-1.4835929151649907
1032831,0.5963620392446956,-0.4409502659482314,-33.91572326410369,0.2586991927018971
1032832,0.1578826093226553,-0.35496028783654765,-34.960958923570615,0.9533467310820924
1032833,0.1378881392954554,-0.0854852366680916,-34.93400911966819,1.3990473365047364
1032834,0.15117565679815925,0.3068425046185439,-35.676443416043185,2.4308859949587713
1032835,0.7321581933189236,0.09633649382544718,-37.068482776937344,3.9498148446355117
1032836,1.5819408140533824,-0.408853252392646,-36.878965185920606,4.074293913266047
1032837,1.6568517912047582,-0.21212110323835986,-35.536965543291444,3.2439773861515278
1032838,1.6430086046848373,-0.3070168846852539,-34.45535022407512,2.678532667670879
1032839,1.5781604880241957,-0.47619094224364744,-37.34833679790336,4.661629640728279
1032840,1.6916928982819854,-0.5630793160428311,-37.760418540085084,4.988608961883074
1032841,0.9643177619944936,-0.09084393527086831,-38.082135266706246,4.877023151731009
1032842,1.1913708655662276,-0.29487211700825355,-38.85689387545062,5.118784315190169
1032843,1.4111937829949284,-0.7634788189927804,-37.984817606933575,4.105637970184034
1032844,1.0902961276486849,-0.812208576033072,-37.284534517124484,3.6109061565239244
1032845,0.9814022149296306,-0.7527017288364277,-35.51295283978743,2.5424080490083725
1032846,1.424142822946692,-0.9560337532448102,-34.666373101329555,2.0469602737921377
1032847,1.9256657325664719,-1.2376927379152676,-31.51251224517364,0.06499328138033889
1032848,2.0306347156030142,-1.0080421565160123,-28.849870604960415,-1.8988422968432133
1032849,1.7408324879322663,-0.29886344538499543,-28.610638950415705,-2.4876800493402698
1032850,1.1960364134023393,0.15782091204869175,-30.660806412583952,-1.411662164228801
1032851,1.3230463608227865,0.33416002125886735,-30.608909636469434,-0.9822555089258458
1032852,1.301976853428073,0.2184153047876407,-31.05830342142235,-0.6569083571475858
1032853,1.2326015432539634,0.12985640334227355,-32.483459749780195,0.48677734698958375
1032854,1.4493629217633952,-0.18986591731754743,-33.6702797436119,2.092632760215565
1032855,1.3400714389889572,0.05822852200208217,-33.02398175930648,2.433165056976577
1032856,1.1855342358006737,-0.25614640610592687,-33.95502699390181,3.269240532009462
1032857,1.2552974399368395,-0.3161838610558334,-33.96602940496905,3.588114559227506
1032858,1.1277491795134438,0.07676678594839359,-34.03752161048942,3.5679054099555287
1032859,1.3833961326441795,0.29980924823530586,-36.12570572877303,5.085450665347707
1032860,1.434268234581623,0.7058914417716551,-38.50622350010963,6.571121930903246
1032861,0.9634808217570026,1.0672474305722517,-36.99452902327448,5.620355540841956
1032862,0.8318480277021081,1.2810455249234565,-34.23816796589108,4.058589649631358
1032863,1.7170103606682687,0.4265484905181438,-32.06472169128483,3.055110195235102
1032864,1.911074959867392,0.4106309023495669,-31.449084863837015,2.451024261204111
1032865,1.8901837865153084,0.4363933966910736,-31.19708678119605,2.053193151819869
1032866,1.9288972614469913,0.5186691473786595,-31.01603084560793,1.668740591927417
1032867,1.538494524322573,0.8440099689880753,-31.474818768029763,1.162523955740653
1032868,1.6452144597876668,0.7468651456199495,-31.00318876820438,0.10828363961627474
1032869,1.7473045780307075,0.34645305319145336,-32.115609488207156,-0.10957718824829499
1032870,1.743255814555937,0.3228621492603452,-32.53721652054355,0.4754396234966407
1032871,1.8329016200292472,0.46852846363321987,-31.66558787680424,0.7912567508501525
1032872,1.8798510152261088,0.47845695763908225,-30.42264426150632,0.8123352681650431
1032873,1.632609720488631,1.1368722036904728,-28.01890923009978,0.32154486885247024
1032874,1.614216466979201,1.20463063419038,-25.487592698271328,-1.0108261763098199
1032875,1.9855121654607046,0.8342796155102405,-23.978930878149185,-1.8973416330463806
1032876,2.158633070944802,0.40286906837263814,-24.89084742150135,-1.4003566490773665
1032877,1.5665100853833565,0.9311556625316371,-27.233945867868897,-0.2753574497583031
1032878,1.6176736554556328,1.1428181732160283,-30.11206006993234,1.5031693727205493
1032879,1.7111116323869737,1.8477212270588552,-28.767151312804344,1.2641401182145273
1032880,1.6801864403514628,2.01319740648637,-28.670123446439902,1.435752672318813
1032881,1.9441052020512188,1.3199254543226289,-31.166923510068955,2.9793909884119785
1032882,2.7996563038602744,0.8381641353685154,-29.26648890812794,2.056520135779465
1032883,2.862167421540107,0.7290668908281077,-26.908952101311115,0.8296476713721859
1032884,2.9315595411377444,0.37935887715184435,-26.33922309670379,0.393778321164973
1032885,3.19053183170206,-0.06929029624802752,-29.299853997936225,2.016507137298504
1032886,3.1491699694216777,-0.4724680668923611,-31.430682012047328,2.799731454418179
1032887,3.1031508023995684,-0.5234460332862909,-31.238628490709743,2.747881334441445
1032888,2.6850240588530596,-0.41453741674354205,-32.68102957152405,3.193181789583832
1032889,2.112149036538767,0.3656832238300467,-33.7012214218521,3.7144522096104993
1032890,1.5693848343706804,0.7888120206935127,-35.4654473762248,4.86639145481513
1032891,0.9428629213840622,1.097362819384898,-35.77414534571926,4.364905841093787
1032892,0.57138355738482,1.229458318897514,-36.23248443531065,4.218768180573534
1032893,0.7259127275910942,1.0810243173730214,-34.21239970041552,2.9649350342615435
1032894,0.26710411453962024,1.5548878340462124,-34.21033709422045,2.145932565570547
1032895,0.3579559581463627,1.8460837806212567,-33.2386211024359,1.6025832849345534
1032896,-0.04447934916709073,2.451641012436994,-32.4565159793201,1.0383610364606284
1032897,0.36792798530950677,2.0175801065720407,-31.710350499466585,0.8657270832227368
1032898,0.8340425607259476,1.695024055930162,-32.36446303482171,1.9275170145019729
1032899,0.6522372906722467,1.7125607336083704,-35.356682471777276,3.6570192226263316
1032900,0.7705694585365563,1.1323408415585163,-36.69088285091493,4.234631193554378
1032901,1.149700252335606,0.1988421951757573,-39.16612360221279,5.238232775491269
1032902,1.1203603391210208,-0.32135449076554323,-40.168155432972526,5.723973690457569
1032903,1.1884725197101034,-0.8514010506066825,-41.00279132482228,6.244446350016915
1032904,0.8323714975299481,-0.22851506798565424,-41.214949861811874,6.180169516816932
1032905,0.6360676689319007,0.22099361579466859,-40.845645917987895,5.651067818062984
1032906,0.9800253574234148,-0.32490961522694306,-40.77706757152828,5.085289092916355
1032907,0.99234686303123,-0.8623141432371995,-35.2162048060909,0.9526697920227889
1032908,0.49166047146536584,-1.2523526147256234,-35.720273454086964,0.8625815269151644
1032909,0.03575151997665671,-1.0671257713534033,-38.129141063735915,2.143767516527987
1032910,-0.1764496043139161,-0.6816331627067029,-36.986765144846686,1.6779077302880978
1032911,-0.009268783607353726,-1.091791180770315,-39.784564658411,3.57638570277868
1032912,-0.26606355505919055,-0.7241935050935808,-42.54786902412161,5.597705592225793
1032913,-0.5381418962891757,-0.20202033023247168,-41.799412092062994,5.201934817361689
1032914,-0.4837400222180577,0.3336163161411605,-37.65479190856968,3.2198625125338367
1032915,-0.6123551814016537,0.5596222616413797,-34.414894462677694,1.5808312847484558
1032916,-0.6452344601754021,0.6868698047555881,-33.43870466898625,1.4035781871343715
1032917,-0.679924335328792,0.3830702746613497,-33.66919182361471,1.4355281306088727
1032918,-0.17943259396236044,0.3608491974541721,-31.350734082191593,0.09903074790418032
1032919,0.2672574415929603,0.6023927607191126,-29.50805294379279,-0.24056621840463777
1032920,0.31399282195161504,0.7291322141775254,-31.370492661290882,1.1995828557110144
1032921,0.3075836322612986,0.8299768866063459,-33.330003089036836,2.1903042578560417
1032922,0.3337916124920639,0.5872143264894021,-36.83984642809355,3.8195417230826934
1032923,0.2591428577810575,0.5394922014518215,-39.96570834375507,5.593327779494757
1032924,-0.13969856893049837,0.5683232935709839,-43.091414146431816,6.809732839879871
1032925,-0.28275070705433336,0.8834414763803125,-44.0164209051909,6.807472840805531
1032926,-0.42249720858330875,0.8223580946844322,-42.665777676132166,5.615625102811464
1032927,-0.2009405795802195,0.7846748242786816,-41.09694929627585,4.435168796793732
1032928,0.20138454667028327,0.6725187369340802,-37.930496426209174,2.547067670739125
1032929,0.047448029324073104,0.3025370977352395,-35.465618998813625,0.8451565107470742
1032930,-0.13629110407839562,0.28757857988148317,-36.70150943183671,1.7232649754123486
1032931,0.10886009659668616,0.11984643811342721,-37.656289669361286,2.3878426896990277
1032932,-0.19592334911658327,0.8931727833407876,-34.65223073185007,0.8535078017330306
1032933,-0.4928076716723808,1.6684289213328611,-33.86287986649677,0.6617763142812692
1032934,-0.9473577000752584,2.074885060008455,-39.14710516193736,3.351596374764995
1032935,-0.9809412768202037,2.254088316123898,-38.73238364943791,3.369939909266577
1032936,-0.7264223128509002,1.9701074786848949,-36.905008287302735,2.425288738846575
1032937,-0.4980669675610443,1.586501907524962,-36.083879857917964,2.2681197310930656
1032938,0.5185419865898666,0.48465641303255325,-35.610838005001824,3.0525423379895074
1032939,0.9890621838075049,0.22925707564627373,-37.05302996964201,4.6563436651858865
1032940,1.064980555604734,-0.3240290465844282,-40.1410600655272,6.1667527672798315
1032941,1.041218404972824,-0.7409513261748089,-38.96281612258372,5.512036992143294
1032942,1.2750687497599529,-0.8893640796823092,-37.690024376099245,4.876212593551827
1032943,1.2088790652023818,-0.6496414647115216,-36.721997625906624,4.502009507166804
1032944,0.8695782200240956,0.061990558890101966,-37.97486305713119,4.504270295930837
1032945,0.21702790080087198,0.676350102425431,-38.52807968859361,3.9634284289077186
1032946,0.03169360532808696,0.6064048092121084,-39.137572738006384,3.3644141820177538
1032947,0.2928291063138886,-0.12942926720188552,-39.53373405810453,3.234966951883507
1032948,0.19543407480864516,-0.4184926484101652,-39.69505239039154,3.031001707806354
1032949,0.2579479850481903,-0.5368792915317044,-40.76652349872984,3.365928913875905
1032950,0.446866891621994,-0.9601868751003622,-43.34257179799897,4.771277646990711
1032951,0.48377252711111396,-1.0196721111101397,-46.86234045868787,7.233722041274632
1032952,0.5026428991329794,-1.0638546891120768,-48.49281850971602,8.72375421023844
1032953,0.40232031256118717,-1.0233511303244995,-45.45556154352835,7.184799615794873
1032954,0.8038935256037121,-1.2799719142637969,-42.610237075569785,6.343722717575474
1032955,0.8519970599855924,-1.0644740808461393,-39.05483437857583,4.705000541856862
1032956,0.5985486317498498,-1.0563189310526013,-38.06922446905628,4.1548293408195605
1032957,0.2677486287184365,-0.6324929176118985,-36.30973649576208,3.3662224398904073
1032958,0.6302581916321515,-0.43471524942174256,-33.225276851500894,2.3292650728817534
1032959,1.4227487183778749,-0.7865002121750422,-31.36488472252404,1.8824769772299987
1032960,1.7100547554232435,-0.6859974529033934,-31.340532539004016,2.085860282812064
1032961,1.3106042789756884,-0.18702966230057427,-34.017792347493014,3.779207484867584
1032962,0.48348690911450376,0.6222178226028063,-34.61936673445416,3.735164497316873
1032963,-0.08946118043616025,1.8182046695612826,-33.89490936144375,2.5650704946165206
1032964,-0.33856496073497055,2.3440181780651983,-33.784836712474316,1.3088331030612608
1032965,-0.14375344454037986,2.117214317445587,-32.063435614062655,-0.4667490992878811
1032966,0.7284904011137314,0.8613278531870492,-32.011787304840254,-0.3026719547378889
1032967,0.9512413819976473,0.14392425300457035,-34.389729585494024,0.8043219770688665
1032968,0.3862859434010488,0.24119728956952713,-40.53712010032996,3.8964919073932833
1032969,-0.09425432682496648,0.6295649971996227,-45.19082371147488,6.274339607679394
1032970,-0.005875731121477656,0.8543970768982945,-42.22368403704331,4.833140299969273
1032971,0.44602648698594294,0.39842443453244414,-40.1748802023958,4.251872531411209
1032972,-0.0633181467551367,0.8186786804262738,-39.58854067354514,4.067386750095466
1032973,0.3989720451733092,0.5939805687337412,-35.53123117211999,2.5116856627682864
1032974,1.1928781733791993,0.12758229828205003,-30.761253533014496,0.11227441051050846
1032975,1.3747046555190536,0.40970936118105783,-29.28397332266377,-0.0017734246048348723
1032976,1.497005298189947,0.26749105641283677,-29.486070268681033,0.36440588434743404
1032977,1.5267836589506487,-0.012574941783441318,-30.666282591635536,1.350991040021654
1032978,1.5046533004974663,-0.15556491338156775,-33.228143842086865,2.8425968906940398
1032979,1.4375549278122435,-0.19289457354102524,-35.74936992041603,4.068558391096303
1032980,1.899400513283922,-0.6853790765069334,-35.66445209059839,4.304451797536785
1032981,2.219570417792397,-1.0513230745661986,-34.43096487717503,3.5758865502521076
1032982,1.8951024576654163,-0.725757699623955,-34.76007104983819,3.765742014891657
1032983,1.421973256309343,-0.5889136470048015,-38.127701420904486,4.82683046089187
1032984,1.2900836910522457,-0.4512603981340817,-38.09047714354983,4.0660200646771045
1032985,1.191726264273143,-0.22784579961580675,-37.68010196038995,3.551170285992157
1032986,1.043739838338638,-0.811257902352736,-36.99782813557522,3.062825858432916
1032987,1.100481984536259,-0.8880703949528197,-36.365029613196384,2.4835215816765412
1032988,1.5233803429551926,-0.9576808801134575,-34.187179666068914,1.7770088907682293
1032989,1.6417894611081465,-0.7070353318565594,-31.34895254395542,0.7439878017939918
1032990,1.606872870367738,-0.9132043785607493,-30.999338930751037,0.6888609042034659
1032991,1.4944852466429666,-0.884172106070082,-35.02651209714986,2.9536954306986445
1032992,1.1537600330433406,-0.5410216026793933,-38.4238954949933,4.707873907390422
1032993,1.1030639246849887,-0.22665902796370574,-39.25236983961895,5.22972710855538
1032994,1.515279519065416,-0.4363912180049283,-38.80800868484857,5.032417008699667
1032995,1.631786558356339,-0.32327395374863954,-37.13729482517465,3.8848839596548714
1032996,0.37881755100886494,1.6423897782906351,-38.38915035795435,4.412428880862535
1032997,-0.9073954794706651,3.090047659469292,-38.89281164802196,5.001769828629222
1032998,-1.3506973371205504,3.3432442988805633,-41.112572995093615,6.605863675174078
1032999,-0.9643931004911792,3.4266865968697857,-36.160456094329675,4.331414090735052
1033000,-1.4524224119676319,4.334298917164006,-31.796654828228384,1.506173958270665
1033001,-1.0436550359836474,3.7360183527257504,-32.20080379387673,1.6968502703284685
1033002,-0.10765289739345008,2.2320450673389587,-35.92262895714248,3.8201362777917893
1033003,1.1176297103290835,0.9170274000487098,-34.97198215139997,3.5808072338795682
1033004,1.7216849965874417,0.2224955029528246,-34.07919709205726,3.016594630101281
1033005,1.682823886805636,-0.0999180495668952,-31.87463121714336,1.0942603949588374
1033006,1.7696164305916682,-0.5296701183738151,-33.932944703389694,1.9743664463030655
1033007,1.1039948417445657,-0.8632260475494604,-37.914002015806545,4.087107246924461
1033008,1.5126930722969973,-1.1799431463416568,-36.619007654509005,3.653936530390638
1033009,2.00212751316883,-1.5443075941650477,-32.429181600472475,0.9443596021728808
1033010,2.1572169668258994,-1.5543963703692043,-31.108844529958333,0.42219710431800195
1033011,1.7560448747515238,-1.5980381076453796,-35.683017250686135,2.750791107660916
1033012,1.494524996462701,-0.8137089139161162,-35.62623951024216,3.1702144003647845
1033013,1.299783954713348,-0.4933703113210868,-35.22389672402642,3.2040568993706984
1033014,1.8414086966388368,-0.9018611450458138,-33.701872681601344,2.5330227582762745
1033015,1.8954982924987007,-0.4733692832123779,-30.810808570602603,1.1494273754142341
1033016,1.3262980503984636,0.18017694050490718,-30.647451176324466,0.7658669726461085
1033017,0.5872801897276076,0.7124419708618461,-33.53386955243059,2.2757235705894345
1033018,0.5590281159275037,0.826387920432353,-36.3334873052072,3.8564192185976935
1033019,0.67099559718406,0.6703281194008923,-35.48134870850026,3.7709691211630343
1033020,1.1161362518847682,0.21383071830541667,-34.89688613529597,3.733594918620838
1033021,1.5322686760425768,-0.14378366456026015,-34.84996459195827,3.467276521806525
1033022,1.7411031876235938,-0.08267313431065304,-33.243573006741826,2.5552711032014486
1033023,1.072885700229108,0.5693767529198794,-34.883265746097095,3.3502270099788802
1033024,0.3837874082490771,1.1404894100433012,-36.77061087311631,4.230524489365052
1033025,0.0938134832850892,1.2447818839837055,-37.995066507901356,4.848710280600244
1033026,0.5059095491645849,0.8165060992455437,-37.283923914957086,4.262365187610158
1033027,0.7588814094578993,0.569583264398716,-35.301298416969075,2.581610833562081
1033028,0.14685439541904088,0.7080427176570083,-35.15516538499742,1.9245483371068985
1033029,-1.064692186141997,1.3402503476231686,-36.88632897328807,2.0393326293815335
1033030,-1.0888717805718215,0.6394747275355712,-38.15111202310527,2.4235089115090886
1033031,-0.7467133842293379,-0.08244654572445143,-39.3440658279178,2.972544183993705
1033032,-0.456554345877521,-0.7022308278906166,-40.64517675648585,3.6190426086122898
1033033,-0.45705649145907046,-0.3880747175617216,-40.72325699083285,3.912263799546963
1033034,-0.9139854409928603,0.632211746589519,-39.13256831446779,3.0728272324995487
1033035,-0.7774735438792959,0.9190997895464079,-39.23533158998998,3.8011092019150965
1033036,-0.4022555050198662,0.6480304485062334,-42.205521747733656,6.1886435232027
1033037,-0.29208549177076293,1.044329465057217,-44.08538844611667,7.366842279211596
1033038,-0.7878236052289367,1.8674915952342417,-41.55717232045481,5.644123232639686
1033039,-0.7858252718519907,1.7964037768415437,-37.97515608433878,3.8350843143671227
1033040,-0.5915624670441275,1.2515114668829028,-38.62822387181495,4.412400812895612
1033041,-0.23307130508044338,0.2351044699501017,-38.76964015584872,4.5613873483953284
1033042,-0.09271378813480169,-0.4232669053319569,-37.500567419906474,3.6941766477611964
1033043,0.3731235296606883,-1.214162337324069,-36.63264096279363,2.724136869580434
1033044,-0.13110771441063207,-0.7055792004966861,-34.90500571787561,1.7924913203978576
1033045,-0.5413275153749737,0.036503946396123865,-36.37914625636677,2.8757255732016347
1033046,-0.4174754315474729,-0.3526129092545034,-40.56614192228426,4.906376202979118
1033047,-0.722491673073705,-0.47714064935030365,-39.623437020913116,3.751270876517083
1033048,-0.43836659762882846,-0.5551970859560242,-38.249857982283174,2.3990296580341237
1033049,-0.25791210708678136,-0.5954517263237449,-36.885034781202194,1.6502626553492519
1033050,-0.2797696815796371,-0.34852333632170485,-37.284589381788464,1.8947433513003489
1033051,-0.272545172771288,-0.4142282454602082,-36.462014245023056,1.5401699478024966
1033052,-0.24231578224805617,-0.4107011577166304,-35.43135312879531,0.971340450471871
1033053,-0.2952416456364517,-0.005478412062757343,-34.47884625250208,0.6940751593774621
1033054,0.012277824734042042,0.3868747742446885,-32.21709389610078,0.10307324255245476
1033055,-0.11327693239752534,0.9302109815691892,-33.61480024971297,1.1928239774542817
1033056,-0.9826164439411968,1.8087914759125852,-37.655032234220926,3.5149141342290022
1033057,-1.688588455748004,2.464698069080214,-42.366178605811,6.245367227960742
1033058,-1.7868553877565319,2.645508576951215,-45.046907291470234,7.86040183737714
1033059,-0.7402227345023675,1.878560273966059,-42.31002210418501,6.6241092197096805
1033060,-0.06837109647688067,1.3081828621805016,-38.25823138813939,4.354126635622379
1033061,0.1387150779419244,1.033413084471249,-38.55976049167293,4.535099161290418
1033062,0.17147073576143157,0.5836427139561238,-39.61307950725859,5.082078257378271
1033063,0.041241421559561786,0.48936943265357513,-39.6139381792882,4.84904338908018
1033064,0.3526833823165134,0.305595363682869,-37.16173295865974,3.4953022513909673
1033065,0.8771476041963524,0.013897760206191379,-37.627672057443306,3.7563311774110844
1033066,1.0261241105564523,-0.11568023562040253,-36.340321049842714,2.9175196111173136
1033067,0.6658034084703104,0.10883425619090303,-35.905270414808,2.426368345539231
1033068,0.6922720909300324,-0.0005533844446290459,-33.1818885987077,0.9499433624932863
1033069,0.5046362010748453,-0.21185737337577848,-31.954764533687012,-0.16122671485391038
1033070,0.6415642083867397,-0.7509472668655235,-31.25972699111844,-1.0383401842473177
1033071,1.0229699289633345,-0.9020330526379894,-29.64449549769961,-1.447159582335189
1033072,1.7316438352804653,-1.0479630016773172,-25.74538887593735,-2.42851846722715
1033073,2.343606749743458,-0.8365391313900545,-23.781130361961914,-2.9004189740335278
1033074,2.5365866646297945,-1.0376964920064893,-26.63337752656753,-1.1210096983813855
1033075,2.083206594296257,-0.6255528922454232,-30.463346164896393,0.6769326159128468
1033076,2.0421092341847498,-0.7289037463431214,-32.923393096381005,1.7463448454600439
1033077,2.0979816475730786,-0.7551069150101739,-33.83519892497043,1.9062397561447142
1033078,2.6639361782212063,-1.2537957887204811,-33.14010416006022,1.6619268180011204
1033079,2.591175628709948,-1.3980433320477914,-34.459739270661885,2.932282071786176
1033080,1.8052888756586754,-0.8722736444888142,-39.440067339300185,5.905136155256514
1033081,1.4750635432191075,-0.2871454858563993,-42.74655915316998,8.041727531849574
1033082,1.3782589401575933,0.07729527379729006,-45.51546017902092,9.80396313597248
1033083,1.5523884599316489,0.06569765274116435,-46.181548335883235,10.295899685079348
1033084,1.419335743317788,0.1546422804276517,-41.40243344536884,7.020290393164942
1033085,1.3686259657431492,0.7498273619423799,-36.284512783976425,3.6977934164506223
1033086,0.9874230571667795,1.2437052477675934,-33.72055973917213,1.6984252989559536
1033087,0.8936605405324372,1.1356518042221069,-34.159535566801424,1.7056027492053545
1033088,1.152568448230113,1.2377351055447434,-35.11304328198821,2.3184352312418923
1033089,1.1111547824215222,1.5808948396279447,-32.13403798728905,0.3675166001967227
1033090,1.274277837826503,1.1217854270889802,-31.77254242131221,0.01828073352226056
1033091,1.4144285991278593,0.9886490945705191,-32.180266739221224,0.7532755182346591
1033092,1.531860844123571,0.9176383853439347,-33.074431874577385,1.4393452116937624
1033093,1.5066866616326706,0.9974659049382808,-32.85730544598027,1.5099110329429095
1033094,1.5244600030972606,1.079050058061739,-32.18907760888942,1.2167558452056255
1033095,1.5370323416562996,1.146588516064412,-32.34486842665774,1.6226782211251702
1033096,1.9116864242787415,0.7788910242625207,-32.606095090179224,2.0706025606486946
1033097,2.19281282374709,0.735367924892671,-30.490261379964977,1.2070748381584053
1033098,2.570103633976828,0.2480590230195503,-27.19546476153755,-0.34070127113955095
1033099,3.1160015985416294,-0.2849308936890793,-26.83875627607631,-0.3519550063101633
1033100,3.1631422745454074,-0.47604727939551594,-27.61782838662748,0.3121250193216838
1033101,2.9135314010359252,-0.060481944949287936,-29.425294467640924,1.1873370121866174
1033102,2.8539388765585727,0.043193224850028855,-33.57042758759417,3.5888621863441585
1033103,2.7449603532251103,0.09640806007951142,-40.740141315088295,7.723508232296808
1033104,2.6550879417496844,-0.04692922467734206,-43.225992561920066,9.39619491074518
1033105,2.651134328087437,-0.6078838410514891,-41.828202954040535,8.491153371242945
1033106,2.7256310624669595,-1.0679696073636933,-37.97459081949637,6.079475128592094
1033107,2.4572830726519896,-0.8505450293941976,-33.1419636730061,2.862534299209983
1033108,2.4085352998994267,-0.7454494558712668,-26.862373948843015,-1.2780877198383678
1033109,2.2517768760202443,-0.6980931041971417,-26.222266558493175,-1.8940299835958285
1033110,2.4801657663365404,-0.6992522066875608,-28.435341496422552,-0.27592081582497485
1033111,2.7840952481807335,-0.7554392244176142,-27.74699991395846,-0.7578199720874181
1033112,2.917681537841645,-0.4462620202332346,-27.66768491966195,-0.9742459698809398
1033113,2.5418173380753615,0.05104138990759566,-27.75059039988264,-0.5451426818290201
1033114,2.5633047284378563,0.7612235878143565,-27.786825350965955,0.23980050056707114
1033115,2.776416505158977,1.1578693782050777,-26.603433283865343,0.11859498854028061
1033116,3.1639521978945595,0.969670405843317,-27.25561412946263,0.9397163662988532
1033117,3.340252871648886,0.7981432295339346,-28.827190858328322,2.048833021766768
1033118,3.3106776844930437,0.18672168568309644,-29.567055671441267,1.8062638959136166
1033119,3.3234675262559676,-0.6070433653087548,-32.36497715940277,2.227026809585368
1033120,3.2560032632801494,-0.8010817365400271,-33.80658821536417,2.3754662712581194
1033121,2.678756034726348,-0.2398078087912836,-35.337193067303815,3.224175926027783
1033122,2.1761615465800332,0.5809985922380747,-36.14049583279393,3.8395827871872825
1033123,2.0838149187302406,1.2352953421589064,-35.75822264671751,3.4019956495203587
1033124,2.143152713348286,1.2459660256840834,-35.500175765832864,3.9277102381638542
1033125,2.069425692549885,1.5465785883031913,-34.42895919088278,4.045568378693133
1033126,1.8579719595574034,1.535595560814727,-33.37094797004647,3.367219976566048
1033127,2.4112802702859426,0.5546947709017331,-31.978409362055572,2.274972159802928
1033128,2.7720073765158304,-0.311165156857669,-29.06025412973213,0.45875605551191256
1033129,2.745045173380163,-0.753693255130429,-28.418957634416984,-0.7174550578147318
1033130,2.1887973312381064,-0.15689217519548038,-28.707072465348574,-1.0529753908049315
1033131,1.6176721007128663,0.9800028250704145,-26.709180770957573,-1.4783041196933482
1033132,2.0638685639584082,1.1547126043174103,-21.70940579442231,-3.346042489884894
1033133,2.6838770534719742,0.943114853075258,-20.67301995823982,-3.143733731391876
1033134,3.187297823414724,0.7792148237429046,-22.346616501788958,-1.8791061223937504
1033135,3.544202339040339,0.48575995103738023,-24.862874216670207,-0.32546425083728536
1033136,3.1375163347630632,0.5041744465590909,-30.631039437145773,2.4827320977901763
1033137,2.156017906583429,1.0197507715663505,-36.54295761709545,5.570229155940069
1033138,1.218161773214888,2.194898970188433,-38.22447999412634,6.303645624753699
1033139,0.21572002759421594,3.237405167416455,-39.94195953446342,6.892619915368414
1033140,0.9526448630711002,2.790193270036525,-38.739189310162146,6.351946545022656
1033141,2.4100453322903377,1.087970783570654,-36.083870140078034,5.214564593339674
1033142,2.9514877554153145,0.3029376950889855,-35.38418455582632,4.913324609134179
1033143,3.146238373051119,0.005047177009146253,-32.97689527742659,3.253826800839306
1033144,2.97879147270271,0.024336488203971385,-31.159826623596018,2.0125387588541344
1033145,2.771409591888073,0.17343216904760084,-30.748415771679902,1.7438365648768013
1033146,2.067446195500679,0.4752749933340965,-31.544657463308795,2.2073892713715395
1033147,0.9805794667915961,0.9250336005638928,-34.16315675389524,2.9522805030674135
1033148,0.8704357387340451,0.5105958130197905,-35.25435239480248,3.4352917783735393
1033149,1.3641553707395815,-0.25844347099177867,-30.863852414320718,1.0973008129285517
1033150,1.5140594905293483,-0.6969843079473321,-32.18214248196182,1.5631197914635777
1033151,1.8924915976878083,-1.148396529152933,-32.88977069113935,1.9758645106085169
1033152,1.8429105955010527,-1.1008970690475053,-33.089173363539885,1.8782902653465499
1033153,1.7557413678669036,-0.5984980496657499,-33.16611253972678,1.996576071470372
1033154,1.4471233914072172,0.44177249641211347,-31.789711626025564,1.3504844537083045
1033155,1.4825776856847597,1.0552776514264224,-32.153996907539295,1.9161088633009058
1033156,1.452098511750819,0.9630782499718862,-35.96995270101161,4.1935136896163385
1033157,1.6437948995009037,0.5313976103484492,-36.01880375794917,4.414543759770822
1033158,1.4932452089760773,0.19514645747131,-34.68911621726966,3.134797129796425
1033159,1.4125733372206923,0.38587817186953544,-33.666679431629746,2.2810116150267277
1033160,1.1962646486093718,0.742891124795733,-33.66083454019008,1.9727666646140278
1033161,0.7235347799745568,1.253028322290902,-33.885657222805094,2.119291945232362
1033162,0.08303558187026283,1.7034898899346445,-36.29457393892335,2.9857459607719647
1033163,0.6173395384568039,0.8704319877565467,-36.98534151810054,3.1883929330087994
1033164,0.8525876957207856,0.04393969855436808,-36.0743813997633,2.5872285079713038
1033165,0.7193240738654367,-0.2656257856795037,-34.8340491358922,1.818805079879894
1033166,0.23907715330346946,-0.10399222478008596,-36.653006852269755,2.4983718157964176
1033167,-0.17365967970658858,0.4554938887770277,-38.24012012925505,2.960021659487211
1033168,-0.29456175612438074,1.2842738662636748,-36.702171073423415,1.9645943132900356
1033169,-0.3587691449547492,1.6284007382851087,-37.0626397138476,1.88560811883508
1033170,-0.4770521550237845,1.489346343400939,-43.38573254657604,4.746732024884295
1033171,0.017680067957485335,0.7612838022162123,-42.27018105616935,3.9092854491073012
1033172,0.37152709221425084,0.34216653231487726,-40.93584825728976,3.460718404679028
1033173,0.33108615622654725,0.10123683199117295,-38.770558178604006,2.80411446844937
1033174,0.4002513556918075,0.12159671305585107,-37.351043208213014,2.386303770024824
1033175,0.4591385862029256,0.10613444437672115,-37.46975366692823,3.0408343229564707
1033176,0.5187912135888837,0.7288891887385489,-35.97499211918603,3.1068519466925864
1033177,0.4510992268709515,1.2814342175076945,-35.35684122790644,3.1526559621606793
1033178,0.2166384931229004,1.4056589953981984,-36.913415664802415,3.896340834883631
1033179,-0.030317019984295257,1.737014464678623,-34.61975465294108,2.4484539122404385
1033180,-0.6565999227033217,2.5540407656503703,-35.30476353392078,2.278543133466883
1033181,-0.0861418459678589,1.638979131548922,-37.66667595790841,3.55470538273039
1033182,0.5016287253674818,0.6039546153185711,-38.955885074397884,4.480982853438945
1033183,0.32563091099518715,0.384981189004975,-37.276780004445754,3.38629329089963
1033184,0.0027464000523877985,0.15025712237502376,-36.82368143358326,2.5995372384713846
1033185,0.594872328599422,-0.6177147829507703,-35.43097166673033,1.5383449157206996
1033186,0.49460629706743475,-0.7428417825194629,-35.575708797254265,1.164309552073064
1033187,-0.1265714029176479,-0.3674585002988806,-35.30270133772774,0.7395184436945783
1033188,-1.0860963435851545,0.5779275338188654,-37.93151198049327,2.115994506851166
1033189,-1.2637924490680916,1.6736331592076112,-38.203730479105616,2.2696918915607966
1033190,0.10903013861582167,0.6885268884020661,-36.90317122611668,2.140635768761058
1033191,0.7471345756193841,0.2816593428372016,-34.19331474192859,0.9172340598433948
1033192,0.20546439323288723,0.7605427772793973,-30.872773326910647,-0.9121101134151104
1033193,0.28328719107503275,1.1096319649307134,-30.42018327843016,-1.1065088299128547
1033194,0.5128207905462432,0.7693766964696351,-40.55256589274086,4.37521937200836
1033195,1.0727432717008014,-0.0719714290205502,-46.97255152836715,8.055042862009941
1033196,1.27655686223693,-0.5888478947545082,-47.18076099807422,8.06505915750131
1033197,1.486809528849676,-1.1446077596967825,-45.14720081243922,6.614838269878419
1033198,1.6307638606266437,-1.412739311351288,-43.52750553505939,5.633643552492686
1033199,1.5813759827103695,-1.377699859032873,-42.338251731506716,5.317867770465455
1033200,2.092468266150945,-1.7422410534350092,-38.70898356464022,3.898843548023251
1033201,1.9879326913076056,-1.7094762015219658,-37.9348342828107,4.2126972299593035
1033202,1.112475255170125,-0.6284824518531877,-39.53617229510019,5.096763066108906
1033203,0.7106515480143116,0.20802325397426102,-35.15652440286249,2.504262613816536
1033204,0.43979905172420786,0.3144862695066877,-31.53859309212021,0.5385065248892715
1033205,0.3001609488878785,0.516703359748135,-32.262570840511216,0.8496491370033254
1033206,-0.025959751020877775,0.8050162787583304,-33.99087749465434,1.3516486809612616
1033207,-0.1661096924933645,1.002263203587063,-32.92693323450385,0.08951602494835242
1033208,0.6615744979565079,0.39076376445382266,-31.24772102856423,-0.8407632675261993
1033209,1.0605555570358547,0.08474474123408982,-29.37593766738246,-2.414176696795039
1033210,0.8519938013112096,0.030732259040632925,-29.180813784508246,-3.086020046142039
1033211,0.7816531680838352,0.2296071991415829,-30.49510717467001,-2.449173045210955
1033212,1.114201686747606,-0.16728922429138038,-32.276505824090236,-1.064251153994519
1033213,0.7977109655254253,-0.5087779725383825,-35.70549898376703,1.0413388593096897
1033214,0.22760739742830083,-0.3143474671669537,-39.16485876015304,2.6697050228531225
1033215,0.13555474602594586,0.4571038431820398,-40.02923330794056,4.049348410121638
1033216,0.4433423785466175,1.2315517353515588,-38.39491937579896,4.238319929672798
1033217,0.7525950454318036,1.120993431585248,-34.92407866246231,2.6715585262454624
1033218,0.28415176306077683,1.8898066214060236,-34.213890224139504,2.0281406106023496
1033219,0.36959383120586153,1.6887032261856803,-34.12367044932307,2.3688374916837347
1033220,0.5615087685479239,0.9636303291044896,-35.279709081755755,3.227696156160164
1033221,0.5177912250036343,0.8249236676867895,-38.71792643360277,5.213971290932932
1033222,0.14265500820215493,1.139526207733752,-40.83234475421432,6.221820090227993
1033223,-0.5565686418990481,1.72942863125877,-40.13029828173967,5.391286096935801
1033224,-0.6571146585665701,1.7051202128400291,-37.012432700097634,3.6186904025371405
1033225,-0.15150941059482648,1.2724638696499824,-34.082219582795005,1.747722360312764
1033226,0.6087380528182393,1.172040446880601,-33.90959453100095,1.4272571914289074
1033227,0.3048435790478834,0.9806829015110452,-35.228405987908445,1.6828055406676867
1033228,-0.1046257761530569,0.3857130955091179,-35.02207832251406,1.030989557247267
1033229,-0.11023819131378332,0.24826252760749412,-34.44565377549043,0.4344280214063474
1033230,-0.12598923320547328,0.6720107214148356,-36.35559239435861,1.5372299693062814
1033231,0.6202174664520044,0.1959370469883197,-38.54835056536831,3.2856838527504806
1033232,0.8314644309832602,-0.2905106777504898,-40.40131903990277,4.346780211777514
1033233,0.9169242426058872,-0.37696398605294235,-42.11446817985325,5.383500876170729
1033234,1.3098103135301926,-0.6607734124183935,-41.24966100227084,5.284849350482546
1033235,1.3912657766092025,-0.8224453185998755,-40.860773930507094,5.542303172048378
1033236,1.5663061814582306,-1.0158733285861672,-41.62832749779409,6.205014871786261
1033237,0.8408336190186674,0.20061125760094,-42.21545846114623,6.512523348437753
1033238,0.4868481811329275,0.9374916881054105,-38.288633838047645,4.466727596852252
1033239,0.7915400206413779,0.7946862175156184,-36.82304665343145,4.065679342612384
1033240,1.2534031266284273,0.20458276646604645,-35.781609260135156,3.634605350818674
1033241,0.9093465359626407,0.5418950056114227,-33.482728039519316,2.249028961809927
1033242,0.22433163366429199,1.072297283077205,-35.12689317171589,3.0522040286396077
1033243,-0.2338892754103199,1.2010925828105883,-37.41655319973779,3.5317193741429946
1033244,0.45877272975178585,0.6445407037128916,-35.61994321749444,2.35925684267022
1033245,0.8000868387557603,0.40828939154698674,-33.35700002302747,0.8142387483176208
1033246,0.9827965159631731,-0.11208984978838998,-32.226002947674715,0.22293300663932314
1033247,0.803213820017163,-0.3299920525987545,-31.59982059667891,-0.3328792155507472
1033248,0.5634155716567193,-0.28342083859502054,-32.10903451764352,-0.8200788309277414
1033249,0.06584847503722813,0.25126146290472207,-35.4938706193343,0.4438254293781938
1033250,-0.40544055645375465,0.6755918451879097,-38.128437569060225,1.3709387810113185
1033251,-0.628009392402646,0.5096208622819631,-40.07517564364116,2.4784057859642417
1033252,-0.6021914994112194,0.45610258061105924,-41.28032546802024,3.5177552814084265
1033253,-0.23978715354667202,0.12032563354773629,-41.88488379471346,4.601295309015768
1033254,-0.042797280407967264,0.552568180930848,-40.71534220175272,4.6064728987148555
1033255,0.1791872554604197,0.6725876355526452,-38.66206784872065,3.9111380501681197
1033256,0.05507729144358109,1.0871576603085487,-39.593735436020324,4.4940023397557525
1033257,0.22141258394935903,1.1625145082543895,-40.58445719829615,5.05493866803954
1033258,0.23992527550342402,1.1712330601037593,-39.66571857776853,4.377717453240621
1033259,0.03572606584020832,1.244463714024505,-38.579941179322304,3.386121959824777
1033260,-0.1194551348027062,1.6482188378074625,-34.27994369730368,0.9042264698964573
1033261,-0.2146242449498459,1.8742309339197618,-31.93258354484442,-0.469453966711626
1033262,-0.0750574930567609,2.1406920826800615,-30.772153562448693,-1.0037381252532214
1033263,0.08332758704284515,1.5042255827784174,-32.455272329302716,-0.08111474011275277
1033264,0.6780707605421412,0.22974086058252396,-33.923563534074674,1.2808570091438014
1033265,0.3097163986258238,0.10673476245051461,-34.54366281818511,1.6611650697414007
1033266,-0.2562624544762002,0.5663725671624888,-33.90287281472138,1.1175918729013574
1033267,-0.34857390747185946,0.3952623356162803,-37.311366764553895,2.581605133576886
1033268,-0.1754985701458054,0.21716030662742014,-38.79586137884871,3.3500590639623624
1033269,-0.363884966419846,0.20614465158269013,-41.19907602425428,4.0792106142716875
1033270,-0.3801786570170407,-0.196667630334332,-42.01836195510532,4.522190905679963
1033271,-0.5659199767759446,-0.6813599721424453,-43.48358335796638,5.199573350105311
1033272,-0.7119901840117109,-0.6306685414392632,-46.477092829690264,6.633695033407093
1033273,-1.0344662179353463,0.15144548140983716,-47.920871512931626,7.348923606564313
1033274,-0.9896765321160501,0.41617947440090575,-48.78332461101763,7.696008759042343
1033275,-0.6084249196190967,0.2390699230129485,-45.948552299690164,5.927346104632306
1033276,-0.6644948615298745,0.23106897749448763,-45.46955703137519,5.774104090348374
1033277,-0.5556615110566554,0.20674802012808868,-46.99657662206209,7.249065863459691
1033278,-0.8714061569780824,0.8639854288346669,-46.20835300306953,7.133277337437903
1033279,-1.1416161129064903,1.3300406984869824,-42.531993920671084,5.116346984613301
1033280,-1.1320924711209273,1.3037427302087963,-35.98603360848483,1.696368950077158
1033281,-1.1020736577331718,1.1892536294756155,-34.752924034059106,1.594058896858769
1033282,-0.7728717734753445,1.072844885137556,-34.990554532469105,1.8126095088664442
1033283,-0.5024168148250965,1.0586597616897961,-32.25402211746132,0.05780275932011136
1033284,-0.10656083620744994,0.9677973834006934,-30.827225530964824,-1.0006690460131722
1033285,0.1962173158360656,0.6679664990781475,-32.29905659934593,-0.28476329290333524
1033286,0.0994275711462933,0.2839479966221461,-35.28231932030849,0.8340784904976317
1033287,0.21544065744853924,-0.5025004229487422,-35.04590833495968,-0.1875579295665375
1033288,0.08676616246827962,-0.6979081504257465,-35.340119868999864,-0.7621722928679446
1033289,0.2959019026370697,-0.9234309314358597,-37.14545467547396,-0.1513706879604797
1033290,0.15099389840850108,-0.833602311069626,-38.32041382883199,0.14660505855317751
1033291,-0.30523914183993384,-0.2111409668370925,-37.311219644425364,-0.2615677773837888
1033292,-0.4513052085327445,0.29392970831531784,-39.09970714679639,1.3382834097028535
1033293,-0.2964724089717947,0.5827005149728848,-43.28591298887568,4.386800150965428
1033294,-0.021425798613336156,0.3931413529528527,-43.6767380466199,5.04580684495977
1033295,0.3116714192794916,0.38732775132507413,-41.82901040078468,4.598642966615444
1033296,0.4230229200881013,0.4603225953501351,-39.10518679559391,3.2268888036824137
1033297,0.13486585241923876,1.012435200442951,-38.397950407711505,2.796996513839076
1033298,-0.28715748016588805,1.4672869212774913,-37.812724186130254,2.310292995864984
1033299,-0.9313086230404224,2.2067977655040067,-36.207876124051836,1.777471360202071
1033300,-1.2326811092790422,2.536881228984612,-34.162391733860204,0.6581152742683116
1033301,-1.179354270297381,2.5032059964767086,-31.822456449403035,-0.6486800102939014
1033302,-0.833267859894363,2.069943411835993,-30.75846925816495,-1.6893158111442972
1033303,-0.8692562520429874,2.0155367143906915,-30.423239615847706,-2.336686076208025
1033304,-0.4216476579945265,1.7184523109115162,-30.539949595618054,-2.237259077013732
1033305,0.14879775517954386,1.0479106795539792,-32.11557644016011,-0.9168153937489478
1033306,0.29316085998982544,0.41784756308129545,-37.91515917182096,1.918996354288538
1033307,0.45026882737010965,-0.6409331708655372,-43.53989262353025,4.834389115721933
1033308,0.7969524699910835,-1.3509872682898276,-43.17074090460301,4.158267985892053
1033309,0.7961096853332492,-1.6936330668938808,-43.47586517903528,3.886343912099619
1033310,0.07270674001108546,-0.9853485463179368,-42.208231707381856,3.2844928212971354
1033311,-0.12154749248043117,-0.7257252026893184,-42.26212671038411,3.5043655241770466
1033312,-0.08247384167441396,-1.280331507500705,-40.72276375477395,2.9251209806561747
1033313,-0.13838099854524444,-1.2095483975008392,-39.649662047630954,3.116259351487315
1033314,-0.05998529217788473,-0.6267527531101678,-39.55103992106433,3.7516306636816807
1033315,-0.11247259121319075,-0.14475748309791925,-36.03597700116643,1.9288796883674877
1033316,0.200528282021196,0.029886204602462385,-34.40539859409728,1.594586360671201
1033317,0.3765755818534444,0.10320095136034979,-35.31920403044023,2.443523266731063
1033318,0.06239998586340789,0.051555759234361176,-37.94444472705618,3.8378650299409856
1033319,0.02977700624182944,0.2809362265516029,-37.688725228572366,3.628263282671469
1033320,0.06168454183409722,0.8115357902358937,-35.36749307968239,1.8563727000610015
1033321,-0.1935304989164024,1.6658705603476847,-35.908943751373954,1.4410507903003236
1033322,-0.9118056408544817,2.3294998211297298,-35.89867345640869,0.8942940685537906
1033323,-0.6256558166929835,2.591627361132396,-34.90995193683193,0.37719393061979645
1033324,-0.4621927381256228,2.4843225408828857,-33.95651213905967,0.012257845497515518
1033325,0.9774994180478416,0.8123675222100246,-32.61518155232625,-0.43108362249768106
1033326,1.012605903852318,0.607341935958857,-34.31928292248904,0.21127269220141898
1033327,0.9323253054756151,0.5807358359052159,-34.179278024562336,-0.4286756296451131
1033328,0.5756254870606199,0.7370890182191943,-35.64779721887135,1.0365315014605585
1033329,0.477213298429092,0.4815991644275073,-35.972496983228666,1.3019929248675908
1033330,1.01612491703861,-0.2907354094913899,-34.99545734791445,0.7397233124174818
1033331,1.7876330502309656,-0.9053275350001968,-31.644356756226443,-1.1390932320373395
1033332,1.6300069095492518,-0.9861855658434706,-33.29609151989462,-0.3951664161795634
1033333,1.2193572391162206,-1.1327079073375899,-39.272393309093786,2.873797539381485
1033334,1.3524957932374946,-1.2757314544794554,-41.81913568254913,4.376633092995689
1033335,0.729611463922879,-0.5525442474099691,-42.538010773295355,5.2503489227010505
1033336,0.04818978358093773,0.44881990907401814,-42.03641663362487,5.514508846737954
1033337,-0.4150234674805233,1.553245874125878,-42.37130298090415,6.054064047792963
1033338,-0.5464904534511561,2.003705749174742,-44.27600133838405,7.4328817881241775
1033339,-0.5034484912690687,2.0092553957426844,-52.583343653740485,12.575552746638095
1033340,0.08972541325988459,1.4344520599368025,-50.57044656109974,12.305826618430729
1033341,0.8550194244536442,-0.15090733050874405,-45.59050766459495,8.950305377307814
1033342,0.6489948006615123,-0.03079556387751836,-39.93008118322814,5.459146510857863
1033343,0.31572463182942556,0.5488734551195193,-36.16841267886048,3.4524571949204983
1033344,0.006294463385643212,0.7789377561507536,-33.074719885744344,1.0570522101206734
1033345,0.0553609549704106,0.9656065527644841,-30.528560148558427,-0.9669100134615292
1033346,0.48257507529797294,0.7873242988321181,-28.51130146722153,-2.2671384806044443
1033347,0.7732800157398287,0.4208859297905292,-27.398360228489764,-3.316871574959805
1033348,0.8693413799529708,0.13565312509513205,-27.580504321916123,-3.380215581883931
1033349,0.6044286275480317,-0.03243524299841738,-27.793093640848383,-3.4175457771825677
1033350,0.5925224621456664,-0.5122229112316745,-30.954018334847206,-1.4764418056511204
1033351,1.2772570975087092,-1.1072617350901055,-33.66964532025304,0.4345714841874724
1033352,1.3337089722471092,-0.9626918553651649,-35.979078596229556,1.6150073769040318
1033353,1.1194267826135729,-0.8932672882181123,-36.647662988145385,1.9906614111296221
1033354,1.3014030948803565,-1.1925541930670533,-38.2714017438484,3.236662492029609
1033355,1.491850616637862,-1.5731076221102285,-37.6813246009724,3.3458029404846457
1033356,1.729657513017969,-1.2776702734936407,-34.94333889320296,2.306849135184166
1033357,1.4053590103910665,-0.04668938112013166,-31.626598662162905,0.8861711222789381
1033358,0.9871376792671072,0.6535000793387553,-30.33294159417619,-0.09262265860706975
1033359,1.2830972172366728,0.43530071023383243,-30.97081620867084,0.5422266747755202
1033360,1.6338591442901134,0.10775341898761326,-31.519040984457206,0.9573663613327881
1033361,1.2233117343635058,0.506957673010902,-33.95521270077643,1.9695263964558762
1033362,1.1394520843367673,0.6018760822855711,-34.54867786706927,2.127078802059259
1033363,1.2265392210103983,0.7380384992452491,-32.79343728317235,1.1973203248371647
1033364,0.8942140808738941,1.0425076989663467,-31.196607442118875,0.12328586045077827
1033365,0.8597121559196239,1.2604948113146293,-31.97789188357092,0.40532937248735834
1033366,0.4731637630449086,1.5619321314507033,-31.492537599816387,-0.15519034235512663
1033367,0.30527253159448264,1.3489686784989772,-31.62900411141618,-0.5781684006360592
1033368,0.07875529374780399,1.1317506674986362,-33.39662088617206,0.11652923144538363
1033369,-0.636745357318091,1.4686492060086493,-33.3411322291322,-0.07118958304090484
1033370,-0.7160848123012329,1.6938659711361197,-33.17807341858315,-0.35265364529459475
1033371,-0.041591090276824616,1.5646281985821133,-36.65530767275868,1.8630803528549222
1033372,-0.0963713328136464,1.7475692342159164,-38.76101784619277,2.616420066653518
1033373,-0.9144239845342099,2.3185051511845813,-41.317217842117316,3.661423509789529
1033374,-0.8009380985057533,1.7728215695344716,-44.54551596464535,5.5362016236840645
1033375,-0.31929242127955604,1.2406666175324972,-44.786542210680636,6.570467939684022
1033376,0.5892103262708588,0.4794399220425021,-42.17787753951143,5.885138292961528
1033377,0.8382470618124671,0.012469771369296723,-39.82623225701809,4.6998498332286545
1033378,1.1707158512446085,-0.5171142439778578,-39.86825385494467,5.006752679679266
1033379,1.5968052852849723,-0.6866688423572214,-39.197714106629064,4.906094748947908
1033380,1.8112873681634483,-1.218840401279067,-39.44016882647975,5.257133155336305
1033381,1.967261716292228,-1.3317107273596775,-39.6855908176376,5.546374267832107
1033382,2.095469547158018,-1.3581905001753967,-38.6148113012805,4.775498667455395
1033383,2.043076861912482,-1.0430601274092623,-37.20133788162002,3.5900377915368153
1033384,1.9650580733889456,-1.1612804736607814,-37.64103497369615,3.3660402997129495
1033385,1.2804612866774505,-0.9759186764474634,-37.99948521861188,3.008762678495259
1033386,0.7676545490525086,-0.659085604305119,-39.20836119150954,3.228254217747235
1033387,0.5512728329190395,-0.7751549983809127,-39.868391263540616,3.1882471487060684
1033388,0.10843161964919545,-0.4448526315793515,-37.94411525186388,1.623015023262269
1033389,0.15202881820903258,-0.4805132927451723,-40.48632667631591,2.400688496643852
1033390,0.12480994763916442,-0.7162585216794923,-42.00296657210674,2.9505516302469914
1033391,-0.07463280829642827,-0.9181516732076034,-41.738610970372974,2.5343134700133305
1033392,0.10831745305267759,-1.05319525557411,-39.652374598671486,1.651635148380592
1033393,-0.10999543794230249,-0.3506012691439082,-37.215017705563696,1.006456702793912
1033394,-0.6081457991762136,0.7934810082458625,-34.95542523106724,0.4579172664844009
1033395,-0.7798135621341089,1.5996638464175703,-32.83780281920099,0.026681762366024486
1033396,-0.8919847486894241,2.003732393360906,-31.878188854796463,0.2700234298554278
1033397,-0.8620104141800766,2.260890896769297,-33.77650807591726,1.646496696687791
1033398,-0.48882999343095435,2.2011307656050576,-33.4069373498678,1.6725607391344965
1033399,-0.47342884638896976,2.3053358419401775,-33.93948393665869,1.2892602845258807
1033400,-0.5302390158567505,2.368128675926073,-34.375213464094486,1.5056603427947266
1033401,-0.8171711727259208,2.030137620379037,-39.06259318674256,3.615439410000363
1033402,-0.3093323941490098,1.3283421447822548,-39.4144150732036,3.4978025950531446
1033403,0.04398711277622169,0.779005035009277,-38.90541793303146,2.704650900401248
1033404,-0.07825419648463594,0.5746343016226092,-39.0355181357254,2.5977765012685268
1033405,-0.26800642874275127,0.0003158209854063898,-40.03058951571711,3.1716660069268983
1033406,-0.2567185487697543,-0.9881419169673791,-39.49380172839028,2.52364235137793
1033407,-0.22875348064167156,-1.4402622008474282,-40.28797916147869,2.4206223301689533
1033408,-0.496352165952203,-0.9770785215098385,-41.380068425120044,2.9579110424738246
1033409,-0.934349689763053,-0.878700177167957,-44.01325558219742,4.10790291851572
1033410,-1.1220916385893815,-0.5973883753622431,-45.39625087451532,4.9868262829841115
1033411,-1.1762003596631985,-0.17102660814293813,-44.78783045275941,5.210466798995185
1033412,-0.8284979074920784,-0.17713696624673503,-42.39808227378944,3.814495518878175
1033413,-0.2731619406860091,-0.2192622496011154,-36.01709272562039,0.9438736813681317
1033414,0.47826952530726885,-0.2864217517076213,-33.921124515414704,0.4805242142692805
1033415,0.9793545881201453,-0.1262783872464297,-34.80838641531318,1.011323728471325
1033416,0.6364156264597796,0.4355427894904551,-40.416812322250735,4.060222746679756
1033417,0.54279078370962,0.318687803098328,-43.26203501321379,5.794425836970731
1033418,0.6792907439672717,-0.05297326263416835,-44.650393287894076,6.948512902285074
1033419,0.2884567058546281,0.3540378108928053,-47.17723225759892,8.422225023011379
1033420,-0.4637506638008517,1.3097290363800766,-51.97396935102097,11.14838219225021
1033421,-1.3864770696970936,2.1890344438338616,-56.32513478846067,13.585518450665404
1033422,-2.0108734668964416,3.227051882056003,-52.65345746321054,11.566501741494903
1033423,-1.6323332538826207,3.112526710224074,-44.85607173922017,7.289517694071947
1033424,-1.1876276243680195,2.8359402891810532,-40.007660802511054,4.959568485033742
1033425,-0.12558796044208975,1.5457535293116962,-37.72923629182242,3.6923472637708983
1033426,0.6380080768456082,0.49110842228287765,-36.34370285779369,3.1545975720819115
1033427,-0.05117628435300503,0.9826924009662434,-36.21770526914224,2.6095258056702733
1033428,-0.831400648291833,1.4863336944051753,-36.06862364466269,1.3714109458142048
1033429,-1.6583319584403853,2.132704110980967,-33.98066209791705,-1.2420110927059795
1033430,-1.9127646951633324,2.5610075642910033,-36.51599699386861,-0.5938722557539222
1033431,-2.117155258686239,2.734918750443285,-39.24603854520865,1.4550336365427938
1033432,-1.2745139556092226,2.3722678674230337,-39.21530108358547,2.6620164057767397
1033433,0.010953809336683662,1.3810276913889084,-31.768099771472407,-0.24863539248963207
1033434,0.6061354897468618,1.0946320230700621,-27.697764622422255,-1.801495383458132
1033435,0.8259326356626389,0.6652937220223976,-31.930140256719824,1.046000770500541
1033436,1.3017096241229638,0.32600733184676756,-35.66279346398824,3.418769832639555
1033437,1.1490783890998273,0.18979114776675488,-37.76072134623337,4.084898584547773
1033438,1.1882633133562877,-0.20788580806197388,-38.80525522999051,4.035779173032097
1033439,0.9945751774880591,-0.4235016188481495,-42.011227842321205,5.449394950295755
1033440,0.8320070480053801,-0.6731497375446907,-45.679024820025916,7.647413666759348
1033441,0.9613144129961029,-0.9226165659979415,-45.83159821361096,7.82018377006807
1033442,0.8205049579487422,-0.9462363202585493,-46.372178726672246,8.279810286087013
1033443,0.5521555262668016,-0.7280164739656811,-44.78976831210184,7.191685149725345
1033444,0.5023843649955779,-0.5592835650654706,-41.21320384536557,4.970527074437996
1033445,0.446280855637724,-0.9469814207068339,-40.33652060644363,3.8393188017289503
1033446,0.3516261507556919,-0.7209385479811772,-39.38392200350427,2.7850138638132194
1033447,0.10611915295737617,-0.9630942599605987,-37.318584947206546,0.994068848896859
1033448,-0.11674728049979421,-0.833500673323897,-35.618699205023404,-0.22385111180665263
1033449,-0.296744097585929,-0.5975070474125914,-35.48757096455847,-0.8053883841839706
1033450,-0.7768407118495588,-0.06827994403897719,-35.200180060715866,-1.3147639738544967
1033451,-1.0070542121624158,0.3110022932892207,-35.63930329336199,-0.8792956233064615
1033452,-0.8130878653817035,0.5469046442717627,-36.14404262908647,0.5337837585584566
1033453,-0.26475757016862644,0.6520247336093234,-35.16205850501228,0.7088752038971506
1033454,0.03610682913983965,0.6035595289733919,-35.80428873116125,1.4401878316366492
1033455,0.44504889787549473,0.018628450586220424,-37.18695954925079,2.412777336787258
1033456,0.2061079840173079,0.5878109703987775,-37.31050161066105,2.733209632035141
1033457,-0.3512522067866257,1.2235418828620368,-37.3073890520709,2.382753707775919
1033458,-0.8968516612798112,1.4830523234440989,-38.071150669924464,2.089061494123598
1033459,-0.851389777960776,1.5012108068290217,-39.04792535679826,2.677321870896776
1033460,-1.6365197284110309,2.7372470753500693,-41.256821504807704,3.872741457553275
1033461,-2.2201510421840567,3.8580843071076742,-43.8958005235354,5.844769572544465
1033462,-1.9567346389209206,3.561239192462608,-45.55396451923298,6.983162932132473
1033463,-1.6228491634067268,2.986120689655536,-46.44087645737363,7.4727506084327615
1033464,-1.9859956293375944,2.5113696578046074,-46.275384998039044,6.958855478648729
1033465,-1.5097129517645271,1.5622054329010098,-44.85545441887007,6.204829926990897
1033466,-1.3542988566957774,1.5577234898385086,-42.60143555106697,5.091884231374934
1033467,-1.7099031573447974,1.4857920511394695,-43.73171856823683,5.1346652927140894
1033468,-1.143263601592821,0.9545002023046436,-40.47351706145582,2.9973504205672725
1033469,-0.43851502609436466,-0.45932309609543154,-37.72017796940327,1.2444941982103046
1033470,0.3900037410857067,-1.543377129366263,-36.129458258625164,0.4080677727024522
1033471,0.680727336307541,-2.2253867373976846,-35.93749881726126,0.31663623520398687
1033472,0.7378300631369257,-2.290984953015368,-34.90331729795889,-0.16699117768166616
1033473,0.7176641038162188,-1.838451863589853,-36.11429010075062,0.7213929243071107
1033474,0.6126612574518049,-1.3704773760653097,-38.3098848016225,2.142829169039942
1033475,0.4787979130436497,-1.0143474511000932,-38.88020137619151,2.740670360153672
1033476,0.6069101117294622,-0.8594464062839506,-38.1290626793716,2.6583182911999756
1033477,0.06258196214855616,-0.873145486036492,-39.99337061149163,3.5042570750565574
1033478,-0.3520878861974097,-0.5366910596887919,-39.691200181203385,3.2376817857675633
1033479,-0.6956957459568684,-0.2915859263441689,-40.24881121541421,3.751070649860594
1033480,-0.5172382308234091,0.11440677510768182,-42.43662742540073,5.532901052162742
1033481,-0.7372208824823474,0.4490919705324359,-45.54277572843603,6.970667318619235
1033482,-1.0594802241630532,1.1498806927888836,-46.08184183823141,6.931097818090166
1033483,-0.9411861171084865,0.890423868249627,-46.97800009882394,6.880853027207195
1033484,-0.4870630399163929,0.13100434477996714,-48.343095716802964,7.1933614762110665
1033485,-0.12594632310788256,-0.379302354399897,-47.123366644710586,6.24574455353013
1033486,-0.2825053437666156,-0.31748137471890914,-47.50174425527075,6.383589314542405
1033487,-0.44000893973407074,-0.06239953591057201,-45.646382180384535,5.3909514042279625
1033488,-0.2548972773885225,0.27842205222123084,-40.19187582438826,2.163856860085616
1033489,0.029905477788020107,0.3436790228392965,-36.9529279883327,0.23277736159616325
1033490,0.022707429874913032,0.044494972077472994,-43.73922242959816,4.183629395395656
1033491,-0.513613756492532,0.5093470871111094,-47.85921609813067,6.688341467420287
1033492,-0.6087011113022527,0.47340605940848945,-42.965079707782024,3.9265383126130473
1033493,-0.23339478595949004,0.2610425240852692,-39.55083102316166,2.2137579984664626
1033494,-0.008032792607991723,0.49070480238651726,-36.98751443811307,1.0418347252661988
1033495,-0.2698465209078904,0.9850084643660466,-38.475650646548274,1.7815543266096938
1033496,-0.299716726255042,0.9089228594498309,-39.11875839148615,2.339477760408954
1033497,0.12245389164320386,0.34425822728962885,-38.97395384844185,2.7564571173406875
1033498,0.5553008538587392,-0.48885906386112765,-41.11634992352356,3.950698720017499
1033499,0.3477889940942305,-0.18141833564118315,-43.59576610104523,5.411453122072089
1033500,0.19023213697857955,0.06255766843310084,-43.846700730984594,4.966046921389534
1033501,0.07962291510864361,-0.10558101904530304,-46.92619220027336,5.664557662359584
1033502,0.08227434909986187,-0.1538300617864934,-46.91342296752464,5.624954424077259
1033503,-0.04046329126799719,-0.1095090967953638,-44.62707313469764,4.589925926960859
1033504,-0.2253108283094889,-0.01656607056042958,-40.862415533199965,2.2421418237527178
1033505,-0.523095156919112,0.8974859668637691,-35.00330295831918,-0.9175208947281135
1033506,-0.9820653107444741,1.88667606910235,-32.637335751433966,-1.8928441409780135
1033507,-1.1643970509754809,1.5222608680780922,-32.64934824463762,-2.648241932027304
1033508,-0.7903414747195256,0.8310630433149981,-33.073520954497326,-2.4632092539441146
1033509,-0.6185059894611413,0.19507922407524347,-33.2193438564791,-3.0806518933686675
1033510,-0.4566966437945439,-0.6390231701018365,-37.20750914711698,-1.3749102620022313
1033511,-0.3274005719716797,-1.4070515607845664,-40.81897738031421,0.5586383495774498
1033512,-0.3579789793062673,-1.3734793625415023,-41.42882554728567,0.8305162725146147
1033513,-0.729605071210699,-0.7716309998984343,-41.35186189024989,0.7341546494517388
1033514,-0.5708900958073855,-1.0624133095798243,-42.83643723107616,2.0218839233702965
1033515,-0.20056692776176988,-1.2612760153408544,-43.70901577345376,2.9855409379088087
1033516,-0.5099655250925252,-0.6630863501466138,-46.27834090025681,4.622071444865469
1033517,-0.660278142338484,-0.25563862255921777,-49.206579320813034,6.854000473356791
1033518,-0.5284432997422073,-0.31504800230186447,-48.284524329129454,6.725050484143139
1033519,-0.5726859993783364,0.13858148540134607,-49.459095327755676,7.798469452345671
1033520,-1.2186565902799202,0.6200444182147749,-51.50952970002436,8.798966915903293
1033521,-1.7283899314176097,0.8413362157359643,-51.32942911789996,8.47347236150381
1033522,-1.588390555597357,0.5461516014963763,-51.95694100276796,8.738098410975908
1033523,-0.8374715934990036,-0.02168148900682354,-50.063456335205046,7.784851273530876
1033524,-1.097947473136628,0.706197413748896,-46.626274455954444,5.264011202666552
1033525,-1.4101500345753948,1.6152521659209924,-41.75143164827023,1.9208501475450248
1033526,-1.4869046051660462,1.1004483600083859,-39.376525071024844,-0.31380052227359556
1033527,-1.0257873534299051,0.40197457114072677,-35.907202657672315,-2.6825158031606406
1033528,-0.8219504947022642,-0.48570553594367993,-36.68824656608194,-2.2769431465940215
1033529,-0.6185493167608911,-1.1738156085377796,-38.81252069213315,-1.1877446297066854
1033530,-0.32462090819410605,-1.79738785117911,-40.70325641097679,-0.3214117782545145
1033531,0.17474972749107565,-2.2310024221073945,-42.50521101957929,0.9927236275698306
1033532,-0.06054299214076764,-1.9755967221617539,-46.11671809098789,3.717507926611688
1033533,-0.6266547013879062,-0.7412121343470517,-48.17409693092213,5.271217249486654
1033534,-1.3478349757746173,0.7664444126633043,-47.36749608140963,5.328323363731215
1033535,-1.6368846079324157,1.2203900106940182,-46.85421130238592,5.675094415854801
1033536,0.010724112244702155,-0.11457495926788397,-45.701990625873805,5.419594510949537
1033537,0.4202207214674445,-0.44239748705672355,-44.29543233247841,4.961252951842653
1033538,-0.023202044192885296,-0.03570255048771287,-43.948075889357824,5.009453583798859
1033539,-0.5168585950929128,0.5730853624629617,-44.89110184225592,5.634959765611711
1033540,-0.9306569561413198,1.006546833056973,-44.9741563651196,5.67476162569983
1033541,-0.5050992955689253,0.05058853570790234,-44.26593443938327,5.07967924922923
1033542,0.5687582924776962,-0.9420211305739485,-42.53569978741325,4.752994227468662
1033543,0.3974855702073228,-0.8186088110785477,-42.458006816094894,5.186890585325273
1033544,-0.029508943848668423,-0.42169712868667375,-43.818491783627906,5.602282023175576
1033545,-0.28700782047258144,0.14683371006913148,-45.589565006870544,5.887194826498671
1033546,-0.14281072107655746,-0.06282387554188062,-46.46965747574632,5.938261757041801
1033547,-0.13437657271902026,-0.3071638469102709,-46.84799334217405,5.7767062090943
1033548,0.024700009178559412,-0.6216616213437192,-48.09833608879944,6.356085114333837
1033549,-0.005192569383211776,-0.5358327845758595,-45.57647498638653,5.130454006109176
1033550,-0.18785506558288034,-0.5629479845906644,-42.40209628928733,3.1837052139999287
1033551,-0.17822471477154522,-0.6611302272988269,-43.52399165661609,3.7337609191627052
1033552,-0.26592198999799166,-0.14605619536587255,-46.14565687853519,5.330925688578645
1033553,-0.19390727868551494,0.1460288377750203,-47.79102060765217,6.633202996363252
1033554,-0.11331162205453893,0.3841403574981541,-46.27706596819098,6.215103237491348
1033555,-0.2174828149759378,0.4043594833624411,-43.46176166081841,4.522009209647877
1033556,-0.4580010768934244,0.1516068329733571,-41.690769427898886,3.5096350231015094
1033557,-0.2400957448015788,0.2929790785747173,-42.91989717521392,4.25004536717006
1033558,0.0017983010283160183,0.22416504953321237,-41.63082319591376,3.369014588652135
1033559,0.12001093558762932,0.2466349128640104,-41.46785783039559,3.693174913900293
1033560,0.3768564853146472,0.28797773154269635,-40.615570717033734,3.119721350723921
1033561,0.81027780593638,-0.18402582556996094,-38.830656227662985,2.102046178033561
1033562,0.9907576411687842,-0.385556383360381,-38.07760132356725,1.6726574239810361
1033563,0.9876701028377965,-0.5403368447857702,-40.32278434023101,2.8790392941191385
1033564,0.8969033363775907,-0.5126791042434888,-41.95234004032227,3.667714852577774
1033565,0.5721240007293318,0.204435602859121,-41.010276437506946,3.012290270002268
1033566,-0.13121811411895123,0.7149452441669837,-40.23014627275188,2.2560618233765126
1033567,-0.007324338974854072,0.5312159478824015,-40.08061552989966,2.448981839971566
1033568,0.40338053755795045,0.1684535786748711,-39.07515167249949,1.880705327731448
1033569,0.5565134885650878,-0.21729874105290037,-39.32218633886532,2.3100747516027695
1033570,0.3872733345448296,0.11394051556544582,-38.28844532202402,1.3489503828141096
1033571,-0.23822522876025687,0.7873962803225822,-38.91672728741196,1.0123156633544568
1033572,-0.04238486221277071,0.6239002419172266,-38.63381405464952,0.5936980867982129
1033573,0.7323484161247507,-0.06153822055625824,-38.32400052097455,0.46526748805263196
1033574,1.071862161063791,0.0673859334417557,-40.428206642832265,2.6016218611557633
1033575,1.0556932828056915,0.07369958025310552,-42.62003423220631,4.425024453771584
1033576,0.8437144752019776,0.17693093456705355,-44.333618466909684,6.038232549362874
1033577,0.6843360530575637,0.6842612518778424,-44.11321940115067,6.492862267658893
1033578,1.0480561035078608,0.5373581924402515,-43.2932921365109,6.353660973931255
1033579,1.2012247097078443,0.589220013125896,-42.44032053616229,6.158901442548995
1033580,0.9760408299632672,1.3430577085794084,-40.67456286167271,4.942832244313649
1033581,0.5224434256518862,1.5766171922316516,-40.05418464936338,3.787027193007816
1033582,0.04391955739322384,1.552391804101262,-40.05591870411172,3.3174962625917033
1033583,0.4274397712258633,1.1901657660193905,-40.42282058709134,3.59023556010834
1033584,0.8133981475788232,0.8545808248384219,-39.298718058144004,3.272656132926386
1033585,0.8863852820991269,0.7355644181600383,-39.965912188140464,3.762429248139597
1033586,0.7341253493925706,0.9082649533584117,-42.45885165515756,4.879559512610285
1033587,0.7986413451734506,0.6397609998507505,-45.44127646480956,6.20760688579594
1033588,0.6863634523638211,0.5652248108208369,-47.62575652182932,7.1152952844204265
1033589,1.056397718581593,0.08031128408697441,-45.16018140238975,5.461957908080876
1033590,1.5503145305069665,-0.4106479479803511,-41.28030585844226,3.6236700924291654
1033591,1.915860455831421,-1.0175348147156456,-41.8377757908911,3.995178256960571
1033592,2.0311738239555552,-1.1621801679964392,-41.81348973384411,3.98326847840508
1033593,2.021899300510654,-0.7659345187159943,-40.78356233894556,3.100658294855748
1033594,1.3001597239650664,0.1980497777187793,-44.00367382382046,5.179206729967518
1033595,1.0612056116179929,1.1104379088328642,-44.408634262538726,6.057964001165601
1033596,0.9786091908022172,1.7683850562755197,-42.98866143919986,5.740007503918605
1033597,1.3420579477068486,1.215550462408828,-39.821449989352004,4.175939131650921
1033598,0.9828738266572827,1.160674122115097,-40.924696955225045,5.284647109609068
1033599,0.587511399020741,1.6133015550217351,-40.36202385519482,5.1501921496837895
1033600,0.7226383729765757,1.9953318919140202,-38.82078635626658,4.0776112060175365
1033601,1.8192238391244473,1.5462773272320192,-35.071892969630426,1.9619361566656153
1033602,2.770629742354913,0.8648126878385938,-30.55607804666488,-0.3812638688041261
1033603,3.2172122854145755,0.5843969027355342,-27.918363203010813,-1.5684358041853557
1033604,3.211802296624228,0.41968182964092193,-27.6459154471504,-1.9506484755665952
1033605,2.558597377230626,0.6606669235143272,-31.21022686748529,-0.6425128504833992
1033606,2.1837460724476614,0.5848711188150446,-34.603172614564755,0.26493638286319765
1033607,2.3202804102360233,0.2201785788217876,-37.74430721617773,1.8192715325321842
1033608,2.6960079729799418,-0.46416576168326174,-40.98781659562974,3.8617229713090637
1033609,2.694945657827134,-0.7902901117149668,-39.40821686050913,2.86519268943357
1033610,2.786119809001093,-1.1662576443559374,-39.38273061544896,2.804764203949162
1033611,2.9177210572786407,-1.3788666976140576,-38.75604043667772,2.825711193650932
1033612,3.020573116993887,-1.4479588352446626,-38.956565205074185,3.2011863764018926
1033613,3.0916520806322296,-1.5932976932529073,-40.45515775068725,4.392462182299823
1033614,2.8530372983561847,-1.1454673042267132,-42.45602017975489,5.61525367820559
1033615,2.646548695977799,-0.6468678043895579,-43.21146496407073,5.9742788880912485
1033616,2.5024481750863288,-0.2659762965124628,-43.46605120391905,5.9773583709202285
1033617,2.166034985997044,0.33827553011997225,-43.373324531447906,5.96539556708467
1033618,2.1328693252079347,0.4983871990391435,-41.606850264005516,5.2941679887435384
1033619,2.231119138955137,0.5242407035357246,-40.30082147346184,4.965066140736781
1033620,2.4099302414912245,0.6550575065416524,-39.37162429675391,4.54269629913324
1033621,2.4675449369315174,0.6897727930972906,-37.6636594310894,3.5762855500124715
1033622,2.2839227844174275,0.763943519626082,-39.467837486696226,4.608866072904675
1033623,1.9486241533212478,1.0051240632865301,-42.320666834069925,6.2356092477220955
1033624,1.5847028811898554,1.3344568630122922,-40.24112252024679,4.6790592697798274
1033625,1.117541122372927,1.3743759498902364,-38.92619316391756,3.069156867424681
1033626,1.234877298043557,0.8311186089799776,-37.79251836956428,1.9450690383309848
1033627,2.1287636880597347,0.02096662657527304,-35.072817471717826,0.13099050799701217
1033628,2.3312423338037433,-0.6750884605141891,-33.89938885311494,-1.1981266811735622
1033629,2.0686879045508704,-0.9731936522607612,-34.78811967729871,-1.034599142110892
1033630,1.7789452805924384,-0.9921909112651974,-35.29504372793781,-0.390445836966137
1033631,1.9562517467700218,-0.5686660208461944,-35.326990029217086,0.5517852219281849
1033632,2.412670509521149,-0.8788873711034739,-35.04631039898868,1.4454060869093155
1033633,2.621851271287369,-1.017982517876817,-36.04737305803519,2.363055379241814
1033634,2.0541430175753703,-0.48014895026631166,-40.99721632892124,4.470619513675956
1033635,1.5180267594914767,-0.05953920941601609,-46.48428397330645,6.458387900918751
1033636,1.4469857037058773,0.020573407775373198,-48.48886989528273,7.085660659918176
1033637,1.2949430469087702,0.23532256356884318,-46.35819769187492,6.267535493770083
1033638,1.3463004174608386,0.27859605450862546,-43.18371641487647,5.1566233671082955
1033639,1.5882969531814979,0.12013726122290791,-41.30388128943832,5.078963678003674
1033640,1.545839518982575,-0.06052253206757996,-39.91801298019618,4.334892715313799
1033641,1.8056394803736566,-0.5349051910377511,-39.15077933873454,3.8616328280877497
1033642,2.2500866379913305,-0.9357740929131069,-38.10571871433331,3.2034022305297185
1033643,1.6931373342915776,-0.306949457982455,-39.04897369468472,2.9562975293874842
1033644,1.025981315405943,0.11240811044467591,-40.96364952695876,3.5616825533707015
1033645,0.8238641956855872,0.5541720008311586,-41.472170696602916,3.41677347122004
1033646,0.709780523632503,0.744243848993392,-40.53752292333593,2.5209400801713855
1033647,0.45770059939786734,0.897986407968574,-39.045562652469016,1.3803459148412003
1033648,0.04358896356541209,1.165779326006259,-38.78060038370313,1.0099863985569755
1033649,0.07374811747888543,0.8394760923918057,-39.91324466669812,1.5937335844746485
1033650,0.5274445844313504,-0.17043043075045716,-41.63081765206425,2.788332262592121
1033651,0.8231066333513581,-0.9664143413288002,-45.80690742582465,5.316393205802342
1033652,0.958306791644759,-1.2371461072068541,-49.010985097655976,7.050937499530846
1033653,0.5905350375360285,-0.8371281524885035,-50.7999722724262,8.269725064836166
1033654,0.2565190948112104,-0.47029721511694333,-52.724078440071935,9.824760839815099
1033655,-0.12817134206852643,0.23170246176186993,-54.68788509989099,11.506335418352137
1033656,0.09373610120849207,0.7784933287350668,-52.555085632468945,10.381058812487026
1033657,0.39955386451651975,1.5982311453028615,-49.72069413470672,8.526389000454401
1033658,0.36304758030075845,1.6745669412648567,-47.84892620947085,7.213616233844732
1033659,1.1390233052159147,0.5620464583223566,-46.08305303339239,6.847999067004821
1033660,1.8070143062401485,-0.34981120978522995,-44.09179087796383,6.251991173962779
1033661,1.8694694579826319,-1.0469815745434516,-44.896111181150445,6.5625760399752835
1033662,1.4711035065523674,-0.9521733369513186,-45.27969672560448,6.644447820544883
1033663,1.204313465488326,-0.7949415697432869,-41.28605439531475,4.336219435087514
1033664,1.6167420205046028,-1.0699643106768235,-38.474074262895556,2.889100010661423
1033665,1.9554080611751488,-1.7621542187548584,-36.654664073075764,1.6694810690869417
1033666,1.724479852051786,-1.6675628840278023,-38.04454922841887,1.8715360779606272
1033667,1.0623913876361257,-1.3159297681777389,-39.23561016211352,1.3796661435408168
1033668,1.1477865511129721,-1.61821176790977,-39.18165860469617,0.6161708752497361
1033669,1.1719344958528382,-2.097434233086233,-37.642872581815936,-0.612356602433465
1033670,0.8528468042243276,-1.6024502183686309,-37.93933642538923,-0.9316601617547349
1033671,0.7391146770022488,-1.3047840855674622,-41.565419765450315,1.3581451577183543
1033672,0.42837204174691124,-1.1570860749818621,-45.95983695111045,4.110353229596512
1033673,0.5901864230421552,-0.7936036020016672,-46.68418984374421,5.220518283074853
1033674,0.4045015726227348,0.022508540067974536,-44.38444887954847,4.231114208925646
1033675,-0.09183390468047037,0.5676599457647171,-44.445223061879005,4.473321640317408
1033676,-0.08807233575339524,0.30716688586767305,-43.0508840110524,3.896943049991023
1033677,-0.22969935471212466,0.520892239655268,-46.14110529248592,5.426854562812878
1033678,-0.34371961506633397,0.7876021682257033,-52.3154323455683,8.88897595641265
1033679,-0.33081952258203273,0.6931967891323438,-55.378412188289076,10.639670032249342
1033680,-0.24023438048800472,0.38049679397681757,-55.640889587831225,10.758820489923892
1033681,-0.07878333583175845,-0.09010256370720526,-52.64773402177343,9.041678066157147
1033682,-0.23468130427602318,-0.3141770972965787,-51.16372724865778,7.991184664344473
1033683,0.10535187781670174,-0.7171296913174956,-47.2503820537695,5.486803829005112
1033684,0.4263791860116726,-0.8137910624648157,-43.40804596778344,3.2495527140126796
1033685,0.5008042054676025,-0.970361787928141,-42.934704944906116,2.794384476312189
1033686,0.9812175527163163,-2.1174109105438674,-41.84812416758177,1.8643077055448884
1033687,1.0143853412962471,-2.584917381498144,-42.00611814992317,1.1012542877024316
1033688,0.7168875295062662,-2.4541103094752543,-45.391864886737494,2.8077795913068258
1033689,0.42160150416839315,-2.2707313322580376,-45.24124577799921,2.5231508310653226
1033690,0.4212262445394117,-2.351527705972103,-42.4866596441052,1.2428091163437784
1033691,0.46469393414247406,-2.475004025888893,-40.8990858655925,0.7159709318157184
1033692,0.865525975997457,-2.2371170677729424,-41.82132681010535,2.1090936560040063
1033693,0.7017539020014283,-1.9515302820395846,-46.38829288414854,4.944536187314952
1033694,0.5396618737592007,-1.45733793931322,-49.86914734324819,7.210712133722154
1033695,0.3146603355373827,-0.9090883183941969,-49.62020992982616,7.523239867247867
1033696,0.562557142794617,-0.6954803140185959,-49.730079018716424,7.995016734557794
1033697,0.3653895667912366,-0.4278857299837,-50.94231859318734,8.973521553900355
1033698,0.18363627665405602,0.030083960669117005,-47.691494203439106,7.699899020336488
1033699,0.24086835718594557,0.6130136993879205,-42.32751967382592,5.134233061759005
1033700,0.6419904511875529,1.0978570246093113,-35.26740284688458,1.464345451609006
1033701,0.605344723008443,1.1029025666771304,-32.243224798558,-0.39759052064982825
1033702,0.29917184699615973,1.1571795544386987,-35.93363531589148,0.7829176519599059
1033703,0.5106440509762251,0.6579665369611121,-41.88902021701688,3.2924746600901926
1033704,0.8835949245473103,-0.2022540978680354,-45.71323422667956,5.145514414585705
1033705,1.0427704647643168,-1.1555970529998376,-45.25523779935793,4.6289814292695155
1033706,0.6415104680991135,-1.4656787017827355,-44.56293803467452,4.093737080866958
1033707,0.6067038500376611,-1.1966436441032329,-44.796468904555695,4.717621458985377
1033708,0.4042729233809723,-0.7360578207237722,-43.42082460194251,4.186408505969666
1033709,0.41994915930320076,-0.6731189245663245,-42.42175177815807,3.6024667985448104
1033710,-0.17802621555108544,0.11842499135354956,-44.76871756259516,4.306284048876478
1033711,-0.703136162956298,0.4181317463933283,-49.009228423464265,6.398662610924475
1033712,-0.7183310708119279,0.24575203905214948,-49.01806585104805,6.432929380042879
1033713,-0.18680472183984875,-0.3287118451576134,-47.787214100568235,6.036287282314333
1033714,0.6123151383702634,-0.8078191958077241,-48.20816623117753,7.14845331538163
1033715,0.8311655484210405,-0.5515310683749703,-48.12328072240416,7.754162716072642
1033716,0.8445420175030449,-0.406263714942952,-43.79587784262458,5.334264466997411
1033717,0.8279506090833593,-0.6331936426806806,-40.83366674975059,3.416931866880077
1033718,0.7904617831590031,-0.8015930255048715,-41.559453016836414,3.9147357483161613
1033719,0.8426368852818769,-0.3667238388122769,-40.1622219939527,3.3819418416715052
1033720,0.598960041386249,-0.12104124302391028,-40.00355162802862,3.468215696922016
1033721,0.9667976447317415,-0.4173033327765552,-42.719117064145394,5.097803182376083
1033722,1.3250667109354026,-0.619848575367314,-42.10832902677521,4.861076167308056
1033723,1.3444044540419782,-0.6141399095506586,-42.49717496600624,5.09940396559341
1033724,1.2152077986469294,-0.673311621667608,-44.52023229756742,6.207446921777773
1033725,1.3434728386450843,-0.9086318616746212,-44.277598666448284,5.7525191397344315
1033726,1.4403949626281474,-0.9918400695471519,-42.72741117188707,4.389733054640601
1033727,1.4361639476773007,-1.0404903382254815,-42.00996902384031,3.447897448000731
1033728,1.2885755675574728,-0.6964952184673621,-42.54918075843216,3.609403269111681
1033729,1.1364740639183992,-1.1330489750728248,-41.934697601519474,2.962737270187972
1033730,0.4658287499983089,-1.0170759039351651,-42.834656089942655,3.12653636865889
1033731,0.12258775037230407,-0.6145600753991403,-44.34493965954243,3.857491400660365
1033732,0.11806680232587041,-0.7030895591185526,-42.32980550643606,2.6430535685149152
1033733,0.0034247404635152634,-0.5580411607663791,-42.16730626523076,2.51438142985171
1033734,-0.725477555313887,0.18461309287840777,-44.11068665685616,3.5269550012590116
1033735,-0.9552926053104329,0.36639464186282567,-45.721138739816524,4.702728628375553
1033736,-0.5362095105679145,0.31040719992779486,-46.722323458287065,5.614672639466335
1033737,0.16656084231271961,0.14979200667744408,-46.13643620671701,5.681821712425517
1033738,0.2603009567501431,0.5215393929734091,-42.921937868382884,4.609837491992039
1033739,0.31680666044223926,0.7816586352382728,-40.85153882702252,3.844003450188211
1033740,0.28577399378309565,1.3252604643712402,-40.59472402503616,3.7161255753080695
1033741,0.7245093343792632,1.1329569290271593,-38.970246081292316,3.367493324755742
1033742,0.9961091704839191,0.9096633690712679,-38.88063435379263,3.501597154141564
1033743,1.4485268678532748,0.5948547241407596,-39.33755551132799,3.638602522083602
1033744,1.6192467647125568,0.15601021151064742,-39.99185098195994,3.7823002097184144
1033745,1.5154539163802383,-0.1497799276103251,-42.28981407724223,4.959742518813982
1033746,1.2270870551485586,-0.4731484273281694,-45.95471584163079,6.488667679099308
1033747,1.1483226736711458,-0.597620884714388,-45.931390469853795,5.861864203561709
1033748,1.3337719224092552,-1.2914571352434905,-43.32937752149792,3.828947248496661
1033749,1.3747846052661998,-1.6750006480338016,-41.50773505586221,1.892766013176697
1033750,0.9468954175885074,-1.624910613971906,-43.80075979709545,3.191007204211928
1033751,0.6312490467249745,-1.0868060855846124,-45.706384812888246,4.593935549836715
1033752,0.2291729940247933,-0.6481848527037073,-44.67436906047351,4.004181645769677
1033753,0.1408652692123269,-0.24420255151426318,-42.03328749541106,2.4148223163247167
1033754,0.03726353207673583,-0.10835482315337686,-43.07050329557205,3.1243489018133914
1033755,0.6464731124418677,-0.5932731640311886,-44.81725524024023,4.746158109341195
1033756,1.1136426792655811,-0.7241056049454073,-44.728563861930525,5.408298194460258
1033757,0.972417306872444,-0.36145298126666603,-44.2424091789444,5.453020654009379
1033758,1.039952395889486,-0.043457883522933116,-45.22259706461864,6.311717184664303
1033759,1.2135298167418114,-0.25729174577236336,-43.11039954728585,5.883580713993069
1033760,1.532022936811586,-0.5620359296779043,-41.090988681718045,5.0312711016640606
1033761,1.4450964441375618,-0.5312068286702925,-42.178516285976,5.614470546304801
1033762,1.2119753257852608,-0.20160187768533433,-42.32782830688939,5.382809168128915
1033763,0.7853001721667852,-0.03097144525395379,-42.55021805735214,4.9521677671282305
1033764,0.5729970806700067,-0.018409601083476446,-41.17386348555465,3.8835843059014223
1033765,0.6258707634667644,-0.3152849125760895,-40.46663750510743,3.163820621501145
1033766,0.4898767560621309,-0.3737073055997371,-40.28908769598547,2.527183175585378
1033767,0.1311369797263069,-0.11944275666382964,-39.76095437436197,1.6294279532548899
1033768,-0.022883068004375673,0.22760845809034436,-37.095574981703976,0.12485974371065822
1033769,0.16686685999479778,0.09766725515873986,-35.44640927114051,-0.4165864525430152
1033770,-0.20232996058746266,0.3826632163049908,-38.30543870928159,1.218825306711551
1033771,-0.5616405424123059,0.4575869447414789,-40.626920795968545,2.749701873472077
1033772,-0.7281173762634126,0.768278458290979,-41.82968901148888,3.5064366503474957
1033773,-1.1529442371114555,1.0998013916107539,-43.723604130513195,4.308426560904081
1033774,-1.4123657483927445,1.178954217810542,-44.45223057452313,4.789485178713221
1033775,-1.2082407441074565,0.8753922633350157,-42.47823834976407,3.4270699315056845
1033776,-1.207848046405843,0.8447056222400988,-42.80932118083547,3.2064347526456913
1033777,-0.7664323189105744,0.7476796274966091,-44.079764616820285,4.0993864789525105
1033778,-0.2608757789161018,0.09663480456129037,-44.22615369309915,4.3129507639732765
1033779,-0.0952812300106416,-0.0068428166516696365,-45.24952656072128,5.320908243683334
1033780,-0.37471328859385267,0.7636072701254761,-45.0126266274101,5.547908483175888
1033781,-0.7224293733725062,1.2437532203671253,-45.12005515961482,5.787219118846224
1033782,0.1721030779551711,0.8504533904279015,-45.77763247382518,6.556642201602699
1033783,1.1549718708049568,-0.06117615699281487,-46.34355101757592,7.180975582422434
1033784,0.7336574928000346,-0.13046516308008904,-48.47869104367237,8.114657035842356
1033785,0.17989631726470634,-0.2482338518659617,-50.098675233559334,8.120168423375617
1033786,-0.0009380946519286226,-0.6948889856962523,-52.740418645579666,8.434201165908235
1033787,-0.022949869884655527,-1.194781656575742,-54.6575006033745,8.697294028769647
1033788,0.1262579617416577,-1.4430129244603904,-50.86421039279867,6.523734594204143
1033789,0.4707617924090073,-2.054117116108955,-46.7699195735313,4.102154687097936
1033790,1.0207827138278844,-2.5861289573958857,-45.00574460493772,3.4559453014553583
1033791,1.1341748442650896,-2.5494154752859686,-43.89411386484608,2.721507357216069
1033792,0.4172137606333308,-1.7251273224560464,-46.305270521400416,4.182673228525346
1033793,-0.18627605912786294,-0.806308470603426,-47.08271878649066,5.162056822718114
1033794,0.22729981482757466,-0.5450435131838276,-45.82466035887319,4.595710480616617
1033795,0.34193473273478503,-0.6821131969907128,-44.40565106612394,4.316797224723814
1033796,0.7676814897064332,-0.9786732139566539,-44.15751045967863,4.50182300805136
1033797,0.8660047164693196,-0.9599347627156476,-43.112114790506894,4.550944367651937
1033798,0.699295754347304,-0.6234856980179302,-41.370321900007184,3.9302793165097683
1033799,0.5099819945019135,-0.3090872258640047,-43.61277458615041,5.552669560202048
1033800,0.5951217839646006,-0.3193984085162356,-41.95731789413185,4.895036432621055
1033801,0.49286349949500163,-0.3168680937615136,-41.39421882500665,4.547706264720546
1033802,0.7820583570454573,-0.6901838907192541,-43.95314873861753,5.9684889603759075
1033803,0.5416642079536587,-0.5025325519939088,-44.30616223886136,5.459590225098509
1033804,0.5298475915468543,-0.7185659123333608,-38.79098578439152,1.7909988523279026
1033805,0.9189429866138425,-1.4619523671401566,-35.2963128222118,-0.8579713422532222
1033806,0.7479421040104626,-1.0565729722582091,-36.32439832046748,-0.9469874533788243
1033807,0.4927888136191996,-1.0219306492326723,-38.56719832623912,-0.03828672003965039
1033808,0.40483566147736383,-1.2217150943388333,-40.33420257073158,1.02665935366349
1033809,0.4608202810500188,-1.5048098781410317,-39.9619128111226,1.091991119499653
1033810,0.02081096810411509,-1.0665018059419253,-40.27658770716425,1.1474151755010098
1033811,-0.15195864926636204,-0.4825888935877174,-40.71296288119902,1.609577029385946
1033812,-0.14686465621093703,-0.5000592811688875,-42.95786746868998,3.121638150192666
1033813,-0.20411472255852914,-0.7194909480913338,-45.92133914655733,4.885875639241931
1033814,-0.013944271466471037,-1.45474411629948,-50.4993586927676,7.965312327767606
1033815,-0.01854424574537461,-1.3126933010853463,-54.7057954271213,10.489073026474216
1033816,0.12009717977025502,-0.9411307329612555,-53.3444250139828,9.999489387486392
1033817,0.6452167703864689,-0.8669065134754419,-50.49744593052492,8.430466517547757
1033818,1.0793278932324029,-0.8990316479582816,-47.24702583954058,6.831917405236709
1033819,1.2424226165302343,-1.0413180286175248,-45.35551479014066,6.070228489387773
1033820,1.1219193507773753,-1.0222731107367053,-43.57553007413753,5.081832613737788
1033821,0.44577748116614657,-0.3024890221931855,-40.69911044663422,3.077126739707637
1033822,0.013044912701502653,-0.05064032344716907,-41.4356586453132,3.2609432373537857
1033823,0.2372591171466638,-0.1355958636518153,-40.97505935945719,3.127038710819761
1033824,0.6868394481249425,-0.35704782742072894,-38.85089049493672,1.979277843805903
1033825,0.5220868150038314,-0.22971408364151102,-37.897565417598344,0.8823810266385408
1033826,0.10272630958490936,-0.11462336928138939,-38.23091368250243,0.6009998309536968
1033827,0.027700522862801336,-0.11465072725286518,-39.390714572914476,0.8204936606780393
1033828,0.1007402434973983,-0.5135615259787301,-39.61539307988642,0.6144782885876339
1033829,-0.28843872376000945,-0.5617352732042491,-39.289424069681445,0.20649013122238102
1033830,-0.4360897748806565,-0.6217107890352054,-41.18739030989673,0.9756551413438501
1033831,-0.4339858751682186,-0.5079458321774837,-41.21655243121768,1.1271585898666672
1033832,0.0026680531278771014,-0.4383379673872696,-40.98587045108707,1.6419287974194958
1033833,0.6968309217951401,-0.8971824522859606,-41.63404485801857,2.715194734436409
1033834,1.3194767109714576,-1.5247518622600182,-42.71871184808515,3.906554347311612
1033835,1.3265540314556574,-1.3114728107061637,-44.14057734638391,4.976998700080003
1033836,1.193748421505461,-1.249676604132219,-46.58593350603769,6.333622708722032
1033837,1.0954203664977058,-1.5019070226601343,-50.074579708196325,8.402992996402645
1033838,0.8466851897346714,-1.3850958147038455,-51.34457483734059,8.77871880467228
1033839,0.6695769492365571,-1.4707800706498801,-52.589769185726254,8.885248147698803
1033840,0.4710665239629179,-1.8272159660755278,-52.3478497753149,8.4545535791367
1033841,0.60449342053289,-1.8274169788246581,-49.03976937542029,6.92300111521763
1033842,0.5900155877563975,-1.090639765209744,-48.35460608577159,7.142879161248857
1033843,0.03563983716662733,-0.29881459443163294,-47.159515121436016,6.478022472502744
1033844,-0.10418258283186788,0.3980333594943204,-44.334476305230055,4.863433931203872
1033845,-0.17444971374231955,0.54229794641833,-42.983381842242125,3.6708918726399133
1033846,-0.5529448834469122,0.869817922464108,-41.621654496675546,3.087137271671054
1033847,-1.2731789892768575,1.8573015014210341,-39.18676330902963,1.4760777780038552
1033848,-1.0696394407672187,1.6562835198542416,-36.90479222140402,0.14508550829214073
1033849,-0.2947948341756046,0.46549921199766686,-36.438201300641595,-0.1684700944342694
1033850,0.05702001187728456,0.04528253161561224,-37.40031747714329,0.4059447677745993
1033851,-0.0697493735488024,-0.22051131395255652,-41.35681360744911,2.1071185135970154
1033852,0.3407113890890514,-0.7965825975493317,-43.125000852573066,2.519126117583255
1033853,0.7969476717711359,-1.3406260694400771,-46.13121314778891,4.063885554152876
1033854,1.0578904275287186,-1.570422764021714,-48.6392091949956,5.819560428888508
1033855,1.3062070091057194,-1.684670478247881,-47.035802696382234,5.291390849314666
1033856,1.0630031007508478,-1.1207802724643443,-45.17849197132091,4.529518783452659
1033857,0.5441664061365827,-0.0198889232547117,-44.282033299661634,4.416983404460552
1033858,0.297635559327432,0.3736465918650538,-40.769506356619786,2.403552823516293
1033859,0.4865380225351146,0.13745059796701753,-39.5535087449216,1.5313256159479351
1033860,0.592355555275276,-0.007601395618166862,-43.9473426685754,3.6447928866455186
1033861,-0.1484423229260301,0.46378950011944653,-45.75108607306811,4.1935725755010935
1033862,-0.3186816689000125,0.11550822468825572,-45.045461430198884,3.5673507956998947
1033863,0.2694767494693906,-0.6412439853515934,-44.20248832814286,3.145238147445525
1033864,0.5488144095951384,-0.7635578075946796,-41.24753303336274,1.5554848108622537
1033865,0.8148772322775812,-0.94763290544347,-40.73183071746371,1.162402787085739
1033866,1.1358696927064784,-1.4557492433264088,-41.375225755617976,1.6093044053241101
1033867,1.4059236515023485,-1.8461183408069246,-41.85395271180005,1.8230004229326369
1033868,1.662755049227144,-2.3006553678051205,-39.13622057859811,-0.03691837267251685
1033869,1.5946845771278504,-2.8586626878986863,-39.56675064611409,-0.4189650515518224
1033870,1.4727143175348374,-2.7657205183211317,-42.16145007559044,1.0384739747878484
1033871,1.2206109258896731,-2.082212729335197,-44.16608430656743,2.4205120315991735
1033872,1.080761939302306,-1.7476738423902134,-46.31723132559364,3.7579793512031756
1033873,1.0899383032081005,-1.0358656398752828,-48.158487609037365,5.50515458247537
1033874,1.0739963366886514,-0.7976191932496022,-48.27497133237193,5.8950935277780445
1033875,0.8735978840345524,-0.6984385503119483,-46.71754457323641,5.303844929852858
1033876,0.613545916101998,-0.866747232634907,-46.4321839621598,5.054751098259658
1033877,0.3627806017070725,-0.8152531361477031,-47.23868615509582,5.734422334997362
1033878,-0.030473216918494472,-0.39775922687363163,-47.77171263515265,5.989646297788568
1033879,-0.011612965951599108,0.10355499765978493,-45.76444637865188,5.2767806826632295
1033880,0.25308087357427667,0.2899955009254427,-46.44027195454055,6.024209075356339
1033881,0.44180723633155594,-0.4072126933422169,-46.814609221914,6.306061219040203
1033882,0.38457415357436275,-0.3843752082859737,-44.99718864524766,5.2735680413225055
1033883,0.015263057911283795,-0.2722332992716474,-41.85939387120561,3.145643180270781
1033884,-0.1139911267265461,-0.1780661270352084,-40.74440627643253,2.031288753840272
1033885,-0.13497924642672388,-0.23039345476104245,-40.19083932670492,1.351101383564128
1033886,-0.506621871854577,0.3768204704847449,-39.18085959278051,0.6713168805945315
1033887,-0.6816530510105849,0.2987873651256905,-38.061252814,-0.3566081273074815
1033888,-0.458109710528106,-0.04283818819180851,-36.64627818909594,-1.3217630103317788
1033889,-0.12009215410068919,-0.5623159317431146,-37.61068914141197,-0.7815245775027506
1033890,0.13461925422643617,-0.7947525308588865,-40.980895130451245,0.9374094769536896
1033891,0.5960219863351313,-1.0959144355592798,-44.893046797013994,3.716050140556945
1033892,0.9182071692476939,-1.3396747524623152,-48.892793412683204,6.633325548592438
1033893,0.6608966614577412,-1.02767733239898,-51.12881144720268,8.278305643385465
1033894,0.2179405004877708,-0.495067350249883,-49.69902424135489,7.338571661482092
1033895,0.21074292810885709,-0.40139996583297943,-44.83072084258583,4.967344124809642
1033896,0.9385273651972739,-0.6935123825874143,-42.67114230540301,4.411572264160895
1033897,1.5385053324995397,-1.1400938823405795,-40.38664644422897,3.4280594934489272
1033898,1.405309307482412,-0.5727355844760496,-37.38077021879781,1.3798194473938565
1033899,0.7072515736090281,0.6584801244650862,-38.059416383709504,1.2487491485135251
1033900,0.02618421717443198,0.7678130419444642,-39.41480080364545,1.2882071375261148
1033901,0.24784183080032562,0.4685716434983078,-41.48320788555975,2.294154718514619
1033902,0.5464001344520284,0.01510442938115375,-42.98360657696685,2.897240517231694
1033903,0.5288787874028458,-0.47898111097993024,-44.06949911353695,3.391397406096985
1033904,0.9372981785845695,-0.9054912160306685,-42.35420132804484,3.0812459278622555
1033905,0.826921171910044,-0.6908848162554477,-43.20846698557307,3.574811874932493
1033906,0.5691200607381006,-0.34744550952586906,-43.908567200704965,3.8418636153983243
1033907,0.3563862372412814,-0.06104879023337162,-42.04642512970986,2.55673484176441
1033908,0.24285147475222857,-0.028719883337316787,-40.40693289061619,1.5568159834801918
1033909,-0.6026623913838876,0.761739432020704,-41.2388918257011,1.1784690253080043
1033910,-0.9409752276972085,0.6572242791489771,-41.109561191020475,0.5821469816710305
1033911,-0.48879548954801066,0.3737616586377044,-41.4019179446359,0.6890632165186616
1033912,-0.31113412613990477,0.13350044941921624,-44.33900075634301,2.254150834567554
1033913,0.1561591159255613,-0.4571351237862018,-44.79720137868662,2.909938539102768
1033914,1.1876502690022335,-1.8676054214702162,-43.07622585067202,2.503704713139996
1033915,1.6572425388211514,-2.3119429101579954,-42.761440157519246,3.0811820747203456
1033916,1.9740760763112348,-2.558725313281684,-44.44075979469835,4.828714703488913
1033917,2.273254293600644,-3.1634513294286535,-46.5561190508115,6.2281339545934316
1033918,2.3275963323499127,-3.360261287278945,-47.05537019830899,6.526490223338442
1033919,2.114623519637007,-2.8357364683001833,-47.76620747954894,6.879188408883238
1033920,2.0393427444978443,-2.68389591180312,-44.67301590062743,5.234359532445524
1033921,1.6795390593473485,-2.237562736909922,-42.7541484509793,3.887836794699979
1033922,1.7251041785879124,-2.162150633579813,-41.649143055049535,3.373971378952774
1033923,1.6437031083106604,-2.0070682373655018,-40.78016642343209,2.7258963241538368
1033924,1.621462265501691,-1.8132427446339534,-41.57852213393471,2.9436302102221816
1033925,1.971866591736557,-2.0630399213123383,-41.80454990461658,3.0090638904021034
1033926,1.5614405174669628,-2.029301056751592,-44.06524825800989,3.8885033914148153
1033927,1.1009909471453057,-1.9862155073435588,-46.98991380692314,5.038661157615934
1033928,0.7119710365093397,-2.045046439420503,-47.97324616324204,5.521006223112636
1033929,0.3286187340466995,-1.8691356746614929,-46.77281492762086,4.071175950442921
1033930,0.5171147527466928,-2.1382002340030795,-44.459824324902,2.301708546775444
1033931,0.8666740879330064,-2.0589286213191826,-40.20792025668561,0.11147487588277727
1033932,0.7431455884849356,-1.5478641951392547,-36.75415528773465,-1.4943468270739686
1033933,0.4369496968273552,-0.9177103395700215,-35.28599704123462,-1.8818142943873681
1033934,0.28635109131528225,-0.17874619368876665,-37.1808316193401,-0.6653959174273041
1033935,0.15700073391212754,0.24777807179930278,-40.88729520771449,1.7431430046590322
1033936,-0.13866586463780095,0.5172062140127309,-44.404415175035865,3.885856576518563
1033937,-0.8638730594889239,1.291925705986614,-48.30132366718408,5.9968445061495
1033938,-0.8525195927571758,1.85573111977169,-45.43016050468759,4.837512770538524
1033939,-0.030388895346959544,1.260986548500341,-41.494308434319464,3.5076235920923864
1033940,1.20039349686067,-0.09212020663244402,-41.96265283520552,4.737693159207993
1033941,1.5623513814434773,-0.5810564709142909,-45.14748139885069,6.347569668421784
1033942,1.542668546178561,-0.8454787152943481,-45.344713443814726,6.508105188774607
1033943,1.4510418026170555,-1.2682198470188268,-43.101595966885725,5.014335383621983
1033944,1.60981403696303,-1.8704554650989849,-42.883931506548834,3.9639559947845555
1033945,1.329991225052595,-1.6844902387972525,-45.57366287467903,4.339795555095407
1033946,0.688977507211348,-1.2941102925697123,-44.77597827111731,3.1001338187452347
1033947,0.46909316708251936,-1.735598897627824,-42.449415743691134,1.5671540986913897
1033948,0.6609151586440021,-2.2358145268919998,-42.15328208433766,1.3310889752856383
1033949,0.97640320937046,-2.7436260599779416,-40.87614758888412,0.11378967341897805
1033950,1.071279500280525,-3.1394383946101243,-39.151556722944406,-1.0847281814731105
1033951,1.2120524529162822,-3.055328724979745,-38.169509385350466,-1.5755607918008536
1033952,1.159423372313313,-2.718992225222337,-40.530087037312114,0.1320987891231198
1033953,1.1346896285140247,-2.5414760062046753,-41.17350316725242,0.9338520385763331
1033954,1.168555255556953,-2.333248999843363,-44.40912926670808,3.2743456468833756
1033955,1.4545154155713362,-2.296238158529377,-44.12212855783855,4.001865762106718
1033956,1.6233868905851523,-2.4210064376484297,-45.763661180784766,5.158676661457321
1033957,1.587585991123774,-2.282688202755935,-47.04565273768003,6.390356619552222
1033958,1.0350632467810783,-1.656551349910842,-46.89760720508093,6.3674031009923056
1033959,0.6124693403988886,-0.6352352633402916,-46.47907824601862,6.113997331344763
1033960,0.44138912135133523,-0.5558770019272288,-47.833954838178215,6.730214532251011
1033961,0.8180801851743809,-1.1611145846127329,-46.75850380958491,6.195845360521162
1033962,0.7317653610715524,-1.4073740882845414,-42.919716599714775,3.761657740233204
1033963,0.7778812156675485,-1.4535708466491997,-43.196533164597895,3.615909605534398
1033964,0.7075070810026318,-1.1222397747324067,-46.50912718895961,5.35314586462755
1033965,0.8746934464322749,-1.0727099276857643,-46.6241811371292,5.4883239964774475
1033966,0.6179010274594248,-1.1036019126986503,-47.34715292387955,5.24645085902921
1033967,-0.03174022834366497,-0.6100065822145098,-48.63490117178753,5.450581414854241
1033968,-0.11845612151284968,-0.4149291987171182,-47.072026936510156,4.229520426396448
1033969,0.299469970569362,-0.7225043336579802,-44.26441215518207,2.6219669334896025
1033970,0.4661848163555078,-0.7657461644757859,-42.90255976409662,2.090052968258533
1033971,0.2621569527502743,-0.6984082751698679,-42.918698914571905,1.9953620748883623
1033972,0.5635531570009107,-1.1852564659261589,-44.931365374533016,3.223597077741033
1033973,1.0064203906782723,-1.4906604256136688,-46.09991784223803,4.557279379177999
1033974,1.1376787107112705,-1.1463546755751395,-45.01068922642571,4.224539316882328
1033975,1.2857327952013975,-1.022629923005752,-42.883349988875125,3.0119644039523337
1033976,1.3512974949604768,-0.9612185006542404,-39.725523780051844,1.153369145184115
1033977,1.2011203875176761,-1.1002676022792457,-40.720142930463226,1.5095690922071299
1033978,0.9929740645701486,-1.3235643593875466,-42.567231313124466,2.4430813996777943
1033979,0.5041270438922538,-0.7613156408328905,-44.783870765723805,3.823453269958918
1033980,0.19809309700576705,-0.2824450226976296,-44.706841636078025,3.5447251569748914
1033981,-0.0631484216772833,0.007431930237544293,-43.722265917378536,3.113472637626728
1033982,0.027047158277696326,0.06326901640068172,-44.00098300328227,3.3216166845822954
1033983,-0.39518315661700854,0.7391619791508219,-43.757512060566114,3.23414842886541
1033984,-0.9919641578529763,0.9530619089912307,-45.012940188074026,3.908870192033646
1033985,-0.8376957292788347,0.5133183833052044,-46.09720352076965,4.190091772390588
1033986,-0.46535732679330977,0.03488865177519074,-45.857763566437825,3.8378038510290935
1033987,-0.6373928005648395,0.04908419503749428,-45.259340054061795,2.868983269322598
1033988,-0.7112750933524694,0.11173953524917124,-45.10135664167956,2.817873825748393
1033989,-0.704822500209275,-0.21390792054035046,-43.67570015719684,1.739715134227481
1033990,0.008795430958684847,-1.0926183518201924,-43.58340665305059,1.5503096772545177
1033991,0.36613259458636094,-1.5683596361609489,-45.599363652673674,2.896432178688883
1033992,0.8956617745030826,-2.0267895495821904,-45.30011320752965,3.4328571602427473
1033993,0.7643763977234812,-1.9547450715699597,-42.48167774997364,2.0884751281364515
1033994,0.6717403992610116,-1.7394595328100877,-41.877444774136166,2.004117316719203
1033995,0.2146865943307148,-0.8874386644495189,-42.81772355853445,2.7699247911987186
1033996,0.18777385466978558,-1.1246526583818195,-43.32051829687407,3.178187462887763
1033997,0.5973336043272184,-1.4862360078263919,-44.01456447133842,3.683263351687856
1033998,0.2840502446741766,-1.0592261390454496,-48.23004267925808,5.925596438049979
1033999,0.4029325865656119,-1.1723609844007115,-52.33859371052404,8.179599749209956
1034000,0.12834234320848736,-0.854357953527142,-56.12760328531658,10.814346718057095
1034001,0.12708570280028653,-1.2555563276876,-55.891243394120465,10.330062201294822
1034002,0.6236269797066143,-1.988185638266259,-53.329723059358,8.761278944370133
1034003,0.9813626683844632,-2.2277387425067445,-49.81539753321886,6.592707082650122
1034004,0.38181561177736967,-1.640799456386958,-48.64422127126818,5.352368948161711
1034005,0.10332259431811508,-2.0079432243942392,-46.562051248655735,3.7721610451017114
1034006,0.24249482625191376,-2.5530668961894207,-42.1725577840034,0.695802955248837
1034007,-0.2308067901335562,-2.0855583517227387,-39.428984685286196,-1.6357411042699823
1034008,-0.3980877205527804,-1.3621386434617762,-37.10369378305768,-2.8412016201027654
1034009,-0.0835555844890905,-1.3875394377312205,-38.58871305607772,-1.984418059420932
1034010,0.1827534040817227,-1.2643601492493417,-39.1653502438985,-1.4889435416853303
1034011,0.533752685088416,-1.4608010897300119,-39.57972769209118,-0.8596828485779042
1034012,0.980784410165711,-2.2709721855658245,-40.972407100143755,-0.017359132370984298
1034013,0.816293322672891,-2.3713409010006217,-43.336931119419205,0.7916638185115517
1034014,0.8766247455854455,-2.181599843522008,-43.10737258534664,0.9347718680346588
1034015,0.6744486579609656,-1.763674022845862,-43.2703979279795,1.5901671121655454
1034016,0.7875478824067841,-1.4314948323985845,-43.659199944744614,2.658829236181191
1034017,0.8140287871415239,-1.0861313262521435,-43.262983330911084,2.7593155670274427
1034018,0.9824510972359803,-1.1874693771117109,-44.27007948440223,3.798256526952173
1034019,0.9743463499050904,-0.8711315000284685,-45.68410778726502,5.401129126304113
1034020,0.46656192581440337,-0.6779723144225045,-46.10697293042904,5.780644810374724
1034021,-0.20256888874655488,-0.0427269563608661,-46.332517949042085,5.532857702359252
1034022,-0.4245134468417291,0.10002481903802618,-45.534454217314305,4.739005155948689
1034023,-0.11690390040166676,0.1790120948621734,-42.45089732362521,2.704245934291066
1034024,0.25794332068028325,-0.02947632350810636,-39.480265126479026,0.6888785923329124
1034025,0.8045891068495621,-0.4180948459645606,-40.66232699170632,1.1342443087978609
1034026,1.3034930177149135,-0.9853846402136242,-42.917934719036566,2.4480338721241424
1034027,1.0587086612528083,-1.1405473155441541,-44.47729213160892,2.639628728565185
1034028,0.919621277359056,-1.1981412627933423,-46.48811293898325,3.49731503791827
1034029,0.36165151791738026,-1.4042924261561893,-49.04011288364654,4.678450496885489
1034030,0.6096455458305172,-2.0059310992585324,-47.34053808784029,3.8130846311451023
1034031,1.2694624321927677,-2.8517778087013994,-44.844958366198625,2.5252635682263644
1034032,1.4429875544429933,-2.82317802424177,-44.88067637029599,2.933494933052316
1034033,2.044620803814837,-3.0669668856507997,-43.35299399600535,2.9872607517600045
1034034,2.0582557225641267,-2.5573900585893625,-43.00715662053881,3.094256774446876
1034035,2.2042957330658055,-1.923143798207775,-43.19940471061909,3.4567417088501315
1034036,1.9809235701555963,-1.3426758484895345,-43.576976799199656,3.9823800856338494
1034037,2.1324433718824594,-1.1084242504205122,-42.63790356122536,3.793330195152521
1034038,1.9969068811669786,-1.045946541441026,-44.182584431457144,4.605651381565622
1034039,1.588166781079849,-0.4424215242615901,-44.21635889565732,4.624692112256525
1034040,1.032983405896971,0.09109333612605042,-43.308924924021994,4.289331878972007
1034041,1.1900376983508067,0.10530706936401657,-40.85762450826587,3.1713642906161112
1034042,2.1778020424526403,-0.7987707507513733,-38.11453265831369,1.8604198609618834
1034043,2.089066534084054,-0.698212392955611,-38.315753938247326,2.118359617943497
1034044,1.2700365316114812,-0.4979618773616039,-40.77529066905481,2.9896797828805575
1034045,1.206988957457952,-0.7770699367299585,-40.8238418620831,2.145928570493197
1034046,1.1293430462477545,-1.0831674305259185,-40.42557244274576,1.368668862850427
1034047,1.0206085838141234,-1.1725497683212325,-40.52920747451208,1.3250091311601864
1034048,0.16074432526158944,-0.48927402801791686,-40.91828292072114,1.3238790119630721
1034049,-0.41522658542987756,0.2281732832373109,-42.721344271724774,1.880431692275124
1034050,-0.6273683853157763,0.7507820123923921,-45.467357657244975,3.12046580180413
1034051,-0.37881748616837285,0.5176862102289306,-43.959173775760064,2.532622658397486
1034052,-0.07937983424471895,0.5280595906078815,-42.23253808368827,1.7641952093053987
1034053,0.476751390629488,0.10100455361157401,-41.37181796234836,1.7005753792127507
1034054,0.8965222644212645,-0.45924262733228716,-45.31343310556167,4.351193939942277
1034055,1.1662506087739075,-0.7504445520032732,-50.79842169366293,7.509021445178405
1034056,1.7555282924864741,-1.2872443305345769,-53.52477918030945,9.050316191243837
1034057,2.3891750456593854,-1.6677355853273639,-46.14425425796435,5.523775699998623
1034058,2.4325280965082356,-2.0966096015449693,-44.39938943375546,4.981247184478889
1034059,2.5659210224179105,-1.9258367419913611,-43.98851234788708,5.117417657993428
1034060,2.219435457820964,-1.1737415452439564,-42.77891660681507,4.811103980447115
1034061,1.9691853667136456,-0.5796261540783689,-43.439555791263956,4.991225219387161
1034062,1.7076648471205544,-0.3189834764293664,-43.06265031319526,4.5865549497884786
1034063,1.6730558205374564,-0.1862078759063479,-40.33462038227026,2.850921666621616
1034064,1.6344632000759702,-0.36250945944448176,-39.048042271726445,2.2783872050613354
1034065,1.7799888931366468,-0.4408823028925326,-38.562621564652545,2.5676655278075486
1034066,1.7473252089533844,-0.5477896028173745,-39.12943420297597,2.9248849625228104
1034067,1.5875763264397165,-0.9376858716216248,-40.96151281274069,3.0658282394006164
1034068,2.259969060612434,-1.97565133116791,-41.2948222442883,3.0195211098243817
1034069,2.317034642324529,-2.2652524948398423,-40.559303040542545,1.9020929499392878
1034070,2.5282158484071715,-2.705260744493671,-38.470873797893546,0.6401101852625288
1034071,2.207152512593325,-2.5361008021307043,-38.89626275904175,0.6780011442715477
1034072,1.6994842347420445,-1.9956899932205943,-39.149261291088806,0.7627993368359967
1034073,1.1859836157233303,-1.5176612916363865,-41.21716677475615,1.5963575002087964
1034074,0.9701114307739545,-1.1481415017467498,-43.24782307977148,2.671721792866265
1034075,1.1228798387548977,-1.0925661391038375,-43.205382455803374,2.819457887723729
